time_seconds,voltage_mV
0.0000,-0.019828
0.0020,0.022087
0.0040,0.006522
0.0060,-0.018954
0.0080,0.007499
0.0100,0.010725
0.0120,-0.004738
0.0140,-0.002603
0.0160,0.004977
0.0180,0.006182
0.0200,0.042884
0.0220,-0.017143
0.0240,-0.020585
0.0260,0.020235
0.0280,0.016741
0.0300,-0.003615
0.0320,0.018504
0.0340,-0.007636
0.0360,0.002213
0.0380,-0.025455
0.0400,0.020923
0.0420,-0.005931
0.0440,0.003228
0.0460,-0.026269
0.0480,-0.003704
0.0500,0.013520
0.0520,0.035610
0.0540,0.022388
0.0560,0.034370
0.0580,-0.004511
0.0600,-0.000111
0.0620,0.014552
0.0640,0.012749
0.0660,-0.018074
0.0680,0.000236
0.0700,-0.004191
0.0720,-0.038157
0.0740,-0.025367
0.0760,0.006680
0.0780,-0.014353
0.0800,-0.003010
0.0820,-0.018577
0.0840,-0.003340
0.0860,0.027807
0.0880,0.019553
0.0900,0.042231
0.0920,-0.004292
0.0940,0.012948
0.0960,-0.033239
0.0980,-0.004208
0.1000,0.001184
0.1020,0.009582
0.1040,0.005087
0.1060,-0.012179
0.1080,0.014567
0.1100,0.014328
0.1120,0.004023
0.1140,0.034160
0.1160,-0.001732
0.1180,-0.016995
0.1200,0.017938
0.1220,-0.011187
0.1240,-0.028890
0.1260,0.000418
0.1280,-0.014509
0.1300,-0.008335
0.1320,0.026931
0.1340,0.012428
0.1360,-0.009396
0.1380,0.016104
0.1400,-0.021785
0.1420,0.001260
0.1440,0.056210
0.1460,0.005311
0.1480,0.004301
0.1500,-0.007607
0.1520,0.014829
0.1540,-0.002200
0.1560,-0.003849
0.1580,-0.017416
0.1600,-0.014672
0.1620,0.014089
0.1640,-0.007776
0.1660,0.013910
0.1680,-0.004038
0.1700,0.017109
0.1720,0.012447
0.1740,-0.013418
0.1760,0.018447
0.1780,0.011908
0.1800,0.012534
0.1820,0.001209
0.1840,0.069891
0.1860,-0.023748
0.1880,0.012185
0.1900,-0.016292
0.1920,-0.020690
0.1940,-0.006026
0.1960,-0.031811
0.1980,0.009383
0.2000,0.003336
0.2020,-0.020219
0.2040,0.002448
0.2060,-0.025416
0.2080,0.005590
0.2100,-0.026369
0.2120,0.040719
0.2140,0.012414
0.2160,-0.002829
0.2180,0.013465
0.2200,0.025077
0.2220,-0.010326
0.2240,-0.033040
0.2260,0.006320
0.2280,0.006177
0.2300,0.022681
0.2320,0.007789
0.2340,-0.009571
0.2360,0.050695
0.2380,0.024790
0.2400,0.026474
0.2420,0.031705
0.2440,0.054766
0.2460,0.062889
0.2480,0.070442
0.2500,0.093804
0.2520,0.100191
0.2540,0.124400
0.2560,0.145473
0.2580,0.153648
0.2600,0.151251
0.2620,0.143093
0.2640,0.142112
0.2660,0.135533
0.2680,0.093471
0.2700,0.109034
0.2720,0.084554
0.2740,0.079269
0.2760,0.023451
0.2780,0.023500
0.2800,-0.003542
0.2820,-0.022755
0.2840,0.026673
0.2860,0.024089
0.2880,-0.000533
0.2900,0.014954
0.2920,-0.028906
0.2940,-0.098943
0.2960,-0.139062
0.2980,-0.147202
0.3000,1.189875
0.3020,-0.226162
0.3040,-0.201091
0.3060,-0.104081
0.3080,-0.022735
0.3100,0.002887
0.3120,0.004888
0.3140,-0.022417
0.3160,-0.005372
0.3180,-0.025730
0.3200,-0.017193
0.3220,0.008351
0.3240,-0.017788
0.3260,-0.046875
0.3280,-0.004602
0.3300,0.005507
0.3320,-0.001551
0.3340,0.028523
0.3360,0.032494
0.3380,0.027576
0.3400,0.048001
0.3420,0.054019
0.3440,0.026923
0.3460,0.133647
0.3480,0.096784
0.3500,0.066957
0.3520,0.188586
0.3540,0.216811
0.3560,0.220126
0.3580,0.185559
0.3600,0.227714
0.3620,0.271061
0.3640,0.281313
0.3660,0.290537
0.3680,0.274869
0.3700,0.282995
0.3720,0.328163
0.3740,0.306534
0.3760,0.319954
0.3780,0.275692
0.3800,0.231060
0.3820,0.193030
0.3840,0.171721
0.3860,0.200881
0.3880,0.140314
0.3900,0.127969
0.3920,0.139947
0.3940,0.090882
0.3960,0.101530
0.3980,0.072934
0.4000,0.016226
0.4020,0.046142
0.4040,0.003628
0.4060,-0.031638
0.4080,-0.005829
0.4100,0.014959
0.4120,0.015337
0.4140,0.013878
0.4160,0.036765
0.4180,-0.000947
0.4200,0.019285
0.4220,0.004179
0.4240,-0.021559
0.4260,0.027925
0.4280,0.016110
0.4300,0.016780
0.4320,-0.007559
0.4340,-0.011189
0.4360,0.033172
0.4380,0.001505
0.4400,0.021293
0.4420,-0.023838
0.4440,-0.022345
0.4460,0.008742
0.4480,0.023147
0.4500,0.000814
0.4520,0.000065
0.4540,-0.007969
0.4560,0.009527
0.4580,-0.026662
0.4600,-0.010334
0.4620,0.016210
0.4640,0.040779
0.4660,-0.016185
0.4680,-0.007603
0.4700,0.027381
0.4720,-0.009913
0.4740,-0.001770
0.4760,-0.017107
0.4780,-0.023489
0.4800,-0.010283
0.4820,0.006841
0.4840,0.010440
0.4860,0.005124
0.4880,0.001781
0.4900,0.019432
0.4920,0.010511
0.4940,-0.006930
0.4960,-0.015991
0.4980,0.023919
0.5000,0.006322
0.5020,0.015094
0.5040,-0.001034
0.5060,-0.015148
0.5080,0.031058
0.5100,0.001878
0.5120,-0.033416
0.5140,0.016282
0.5160,-0.013926
0.5180,-0.012526
0.5200,-0.028876
0.5220,0.003814
0.5240,-0.007783
0.5260,0.008156
0.5280,0.002429
0.5300,0.002492
0.5320,-0.004237
0.5340,-0.002679
0.5360,-0.005497
0.5380,-0.020288
0.5400,0.033083
0.5420,0.008504
0.5440,-0.016408
0.5460,-0.014457
0.5480,0.012616
0.5500,-0.011645
0.5520,0.024695
0.5540,-0.002974
0.5560,0.018147
0.5580,-0.035895
0.5600,-0.036284
0.5620,-0.024561
0.5640,0.005658
0.5660,0.016874
0.5680,0.001253
0.5700,-0.005350
0.5720,-0.018416
0.5740,-0.010201
0.5760,-0.015052
0.5780,-0.003575
0.5800,-0.003826
0.5820,0.009569
0.5840,-0.000341
0.5860,0.019493
0.5880,-0.005525
0.5900,-0.022320
0.5920,0.014986
0.5940,-0.036906
0.5960,0.017330
0.5980,-0.021686
0.6000,0.000830
0.6020,-0.007777
0.6040,-0.016191
0.6060,-0.002175
0.6080,0.008000
0.6100,-0.003225
0.6120,-0.005860
0.6140,-0.007769
0.6160,-0.019235
0.6180,0.001089
0.6200,0.021340
0.6220,-0.018613
0.6240,0.001621
0.6260,0.011487
0.6280,0.015999
0.6300,0.030672
0.6320,-0.004361
0.6340,-0.028615
0.6360,-0.001128
0.6380,-0.003810
0.6400,0.022895
0.6420,-0.018024
0.6440,0.003958
0.6460,0.006295
0.6480,0.000166
0.6500,0.000359
0.6520,-0.007265
0.6540,0.032211
0.6560,-0.015399
0.6580,-0.035594
0.6600,0.004778
0.6620,-0.035201
0.6640,-0.014401
0.6660,0.017464
0.6680,0.006880
0.6700,0.001276
0.6720,0.029097
0.6740,0.007324
0.6760,0.003203
0.6780,0.010773
0.6800,-0.002805
0.6820,0.041305
0.6840,-0.001503
0.6860,-0.007983
0.6880,0.017303
0.6900,0.018559
0.6920,0.000422
0.6940,-0.021235
0.6960,-0.026274
0.6980,0.042094
0.7000,-0.021569
0.7020,0.014660
0.7040,0.012734
0.7060,-0.008679
0.7080,0.010721
0.7100,-0.041371
0.7120,-0.010665
0.7140,-0.020959
0.7160,0.011408
0.7180,-0.012350
0.7200,0.012263
0.7220,-0.015060
0.7240,0.000962
0.7260,-0.017283
0.7280,-0.042611
0.7300,0.003696
0.7320,-0.028997
0.7340,0.020098
0.7360,-0.022151
0.7380,-0.015461
0.7400,-0.032063
0.7420,0.017469
0.7440,0.008524
0.7460,0.026727
0.7480,0.012061
0.7500,0.028638
0.7520,-0.023409
0.7540,-0.015651
0.7560,-0.012352
0.7580,-0.014439
0.7600,-0.003717
0.7620,0.028762
0.7640,0.014257
0.7660,-0.008638
0.7680,0.023552
0.7700,-0.016200
0.7720,0.023917
0.7740,0.017318
0.7760,-0.010053
0.7780,-0.015689
0.7800,0.008421
0.7820,-0.033092
0.7840,0.024299
0.7860,0.028389
0.7880,-0.014391
0.7900,-0.023634
0.7920,0.007066
0.7940,-0.031134
0.7960,0.033138
0.7980,-0.020931
0.8000,-0.026070
0.8020,-0.017033
0.8040,0.010707
0.8060,0.015826
0.8080,-0.039875
0.8100,0.014278
0.8120,-0.001619
0.8140,0.029142
0.8160,-0.026907
0.8180,-0.037545
0.8200,0.026678
0.8220,-0.019156
0.8240,0.019441
0.8260,-0.035756
0.8280,-0.004674
0.8300,0.026780
0.8320,0.012677
0.8340,0.014913
0.8360,-0.025963
0.8380,-0.007519
0.8400,-0.009089
0.8420,-0.014410
0.8440,-0.004488
0.8460,0.009466
0.8480,-0.000470
0.8500,0.020770
0.8520,-0.001034
0.8540,-0.008199
0.8560,-0.008320
0.8580,0.004539
0.8600,0.001824
0.8620,-0.009048
0.8640,0.015467
0.8660,0.009806
0.8680,0.005907
0.8700,0.008418
0.8720,0.022908
0.8740,0.012496
0.8760,0.015231
0.8780,0.001368
0.8800,0.011277
0.8820,-0.061415
0.8840,-0.000962
0.8860,0.021968
0.8880,-0.002955
0.8900,-0.007403
0.8920,0.025925
0.8940,-0.021045
0.8960,0.042325
0.8980,0.032206
0.9000,-0.008374
0.9020,0.018266
0.9040,0.017625
0.9060,-0.000021
0.9080,-0.010823
0.9100,-0.042157
0.9120,0.001163
0.9140,0.015908
0.9160,-0.013371
0.9180,0.018751
0.9200,-0.026561
0.9220,0.009776
0.9240,0.042565
0.9260,-0.026360
0.9280,-0.034230
0.9300,0.007061
0.9320,0.063873
0.9340,-0.003245
0.9360,0.057151
0.9380,0.082595
0.9400,0.082325
0.9420,0.133811
0.9440,0.108791
0.9460,0.192631
0.9480,0.158631
0.9500,0.159833
0.9520,0.157983
0.9540,0.106187
0.9560,0.144601
0.9580,0.096049
0.9600,0.083854
0.9620,0.020924
0.9640,0.030328
0.9660,0.049885
0.9680,0.025597
0.9700,-0.008264
0.9720,-0.025603
0.9740,0.024070
0.9760,0.051705
0.9780,-0.006556
0.9800,-0.006635
0.9820,-0.052016
0.9840,-0.060239
0.9860,-0.115608
0.9880,-0.165259
0.9900,1.191707
0.9920,-0.261993
0.9940,-0.229132
0.9960,-0.075666
0.9980,-0.026182
1.0000,-0.029531
1.0020,-0.004648
1.0040,-0.002200
1.0060,-0.039479
1.0080,-0.033064
1.0100,0.005446
1.0120,-0.009654
1.0140,0.011246
1.0160,0.002302
1.0180,-0.000605
1.0200,0.017891
1.0220,0.011188
1.0240,-0.007485
1.0260,-0.019113
1.0280,-0.031991
1.0300,0.031365
1.0320,0.107610
1.0340,0.050283
1.0360,0.117366
1.0380,0.081660
1.0400,0.161104
1.0420,0.160369
1.0440,0.186867
1.0460,0.207442
1.0480,0.206167
1.0500,0.238621
1.0520,0.262143
1.0540,0.285120
1.0560,0.279442
1.0580,0.320452
1.0600,0.271436
1.0620,0.325429
1.0640,0.272724
1.0660,0.294003
1.0680,0.287916
1.0700,0.226827
1.0720,0.214381
1.0740,0.184957
1.0760,0.189949
1.0780,0.159145
1.0800,0.143862
1.0820,0.112487
1.0840,0.120350
1.0860,0.067216
1.0880,0.029577
1.0900,0.011291
1.0920,-0.008486
1.0940,-0.012626
1.0960,0.061756
1.0980,0.018067
1.1000,0.007967
1.1020,-0.009549
1.1040,-0.004696
1.1060,0.013291
1.1080,0.002583
1.1100,0.019698
1.1120,0.004635
1.1140,-0.002275
1.1160,0.015665
1.1180,0.012831
1.1200,-0.032366
1.1220,0.007748
1.1240,-0.003514
1.1260,0.034594
1.1280,0.007593
1.1300,0.026319
1.1320,0.040302
1.1340,-0.002144
1.1360,-0.003229
1.1380,0.004492
1.1400,0.006553
1.1420,-0.004822
1.1440,-0.034339
1.1460,0.023367
1.1480,-0.013454
1.1500,-0.014756
1.1520,0.010164
1.1540,-0.019160
1.1560,-0.011568
1.1580,0.003126
1.1600,-0.035366
1.1620,-0.012366
1.1640,0.014557
1.1660,-0.013786
1.1680,0.038688
1.1700,-0.011036
1.1720,0.024439
1.1740,0.004950
1.1760,0.025868
1.1780,0.031922
1.1800,0.006285
1.1820,0.000427
1.1840,0.011142
1.1860,0.009557
1.1880,0.001235
1.1900,-0.004803
1.1920,0.015737
1.1940,-0.015737
1.1960,-0.014158
1.1980,0.001084
1.2000,0.000648
1.2020,-0.029626
1.2040,-0.029026
1.2060,-0.003806
1.2080,0.009177
1.2100,0.008267
1.2120,0.005574
1.2140,0.029710
1.2160,0.031187
1.2180,0.017633
1.2200,0.025464
1.2220,0.009663
1.2240,0.000386
1.2260,-0.000818
1.2280,-0.007413
1.2300,0.003828
1.2320,0.016410
1.2340,0.004478
1.2360,0.016073
1.2380,-0.054844
1.2400,0.025859
1.2420,0.024083
1.2440,0.018896
1.2460,-0.015317
1.2480,0.001831
1.2500,-0.034486
1.2520,-0.006588
1.2540,-0.000857
1.2560,-0.018410
1.2580,0.001408
1.2600,-0.015513
1.2620,0.025827
1.2640,0.005680
1.2660,-0.007571
1.2680,0.013301
1.2700,-0.035753
1.2720,0.007363
1.2740,-0.003274
1.2760,0.009331
1.2780,-0.023693
1.2800,0.003351
1.2820,-0.001282
1.2840,-0.026336
1.2860,0.025146
1.2880,-0.028047
1.2900,0.013352
1.2920,0.014993
1.2940,-0.007786
1.2960,0.038022
1.2980,-0.025987
1.3000,-0.010193
1.3020,0.014207
1.3040,-0.001857
1.3060,-0.045448
1.3080,0.004249
1.3100,0.006528
1.3120,-0.011075
1.3140,0.008225
1.3160,-0.002089
1.3180,-0.006161
1.3200,-0.033323
1.3220,0.016368
1.3240,0.002932
1.3260,-0.011039
1.3280,-0.004836
1.3300,-0.003052
1.3320,-0.005883
1.3340,0.019719
1.3360,-0.007207
1.3380,-0.007652
1.3400,0.030680
1.3420,0.023511
1.3440,0.001933
1.3460,0.047513
1.3480,0.009819
1.3500,-0.015624
1.3520,0.012840
1.3540,-0.000638
1.3560,-0.034837
1.3580,0.016945
1.3600,-0.041919
1.3620,-0.014251
1.3640,-0.007968
1.3660,-0.018268
1.3680,-0.038458
1.3700,-0.008858
1.3720,0.004326
1.3740,0.011068
1.3760,-0.032146
1.3780,-0.010374
1.3800,-0.026194
1.3820,-0.000049
1.3840,0.008628
1.3860,0.013533
1.3880,-0.013477
1.3900,0.017266
1.3920,-0.019988
1.3940,0.008857
1.3960,-0.002207
1.3980,0.005256
1.4000,0.055534
1.4020,-0.034518
1.4040,-0.025254
1.4060,0.027882
1.4080,0.002327
1.4100,-0.021673
1.4120,0.007040
1.4140,-0.013256
1.4160,-0.015298
1.4180,-0.043003
1.4200,0.013068
1.4220,0.005999
1.4240,-0.026443
1.4260,-0.049044
1.4280,-0.018936
1.4300,-0.011501
1.4320,0.007690
1.4340,-0.001155
1.4360,0.007265
1.4380,-0.003159
1.4400,-0.002156
1.4420,-0.001624
1.4440,0.024379
1.4460,0.007303
1.4480,-0.036117
1.4500,0.023612
1.4520,-0.005265
1.4540,-0.002861
1.4560,0.030183
1.4580,-0.021064
1.4600,0.016848
1.4620,0.006259
1.4640,0.001634
1.4660,0.013046
1.4680,-0.001562
1.4700,-0.023171
1.4720,-0.013021
1.4740,0.018195
1.4760,0.026995
1.4780,0.005156
1.4800,0.019153
1.4820,0.014124
1.4840,-0.000920
1.4860,-0.004670
1.4880,0.037789
1.4900,0.000367
1.4920,0.033860
1.4940,0.009252
1.4960,-0.030349
1.4980,-0.009309
1.5000,-0.035590
1.5020,-0.002884
1.5040,0.029282
1.5060,-0.000428
1.5080,0.012414
1.5100,-0.039274
1.5120,-0.010359
1.5140,0.022112
1.5160,0.017112
1.5180,-0.037604
1.5200,0.026191
1.5220,0.026791
1.5240,0.024477
1.5260,0.048742
1.5280,-0.013066
1.5300,0.029314
1.5320,-0.020621
1.5340,0.014505
1.5360,-0.031964
1.5380,-0.011540
1.5400,0.029105
1.5420,-0.001451
1.5440,0.008796
1.5460,-0.006793
1.5480,-0.012552
1.5500,0.000657
1.5520,0.015516
1.5540,0.007329
1.5560,0.007714
1.5580,-0.031107
1.5600,0.014215
1.5620,0.007252
1.5640,0.019897
1.5660,0.029178
1.5680,0.002720
1.5700,0.004321
1.5720,0.010718
1.5740,-0.008708
1.5760,-0.003337
1.5780,0.015643
1.5800,0.000640
1.5820,0.018800
1.5840,0.024192
1.5860,0.033283
1.5880,-0.016569
1.5900,0.006082
1.5920,-0.025747
1.5940,0.034033
1.5960,-0.004863
1.5980,0.004281
1.6000,0.005944
1.6020,-0.001286
1.6040,0.000497
1.6060,-0.030749
1.6080,-0.023570
1.6100,-0.013132
1.6120,-0.018149
1.6140,-0.033035
1.6160,-0.002101
1.6180,0.019012
1.6200,-0.021548
1.6220,-0.019476
1.6240,-0.038379
1.6260,0.005212
1.6280,-0.003864
1.6300,0.009118
1.6320,0.016696
1.6340,0.007495
1.6360,-0.059641
1.6380,0.023232
1.6400,0.005194
1.6420,0.014246
1.6440,-0.030844
1.6460,-0.004521
1.6480,-0.041977
1.6500,-0.026161
1.6520,0.040665
1.6540,0.037710
1.6560,0.067744
1.6580,0.089300
1.6600,0.084629
1.6620,0.090359
1.6640,0.119142
1.6660,0.172594
1.6680,0.174951
1.6700,0.163768
1.6720,0.157642
1.6740,0.119308
1.6760,0.151583
1.6780,0.100019
1.6800,0.098761
1.6820,0.063709
1.6840,0.064880
1.6860,0.006595
1.6880,0.034044
1.6900,0.015668
1.6920,0.009172
1.6940,-0.018027
1.6960,-0.003431
1.6980,0.015136
1.7000,-0.010711
1.7020,-0.005242
1.7040,-0.022375
1.7060,-0.118242
1.7080,-0.177600
1.7100,1.216799
1.7120,-0.270133
1.7140,-0.197474
1.7160,-0.127317
1.7180,-0.013497
1.7200,-0.012470
1.7220,-0.001230
1.7240,-0.000368
1.7260,0.003918
1.7280,-0.026564
1.7300,-0.001793
1.7320,0.016029
1.7340,0.008367
1.7360,0.011444
1.7380,-0.025827
1.7400,-0.004398
1.7420,0.010711
1.7440,0.008590
1.7460,0.006659
1.7480,0.027151
1.7500,0.064246
1.7520,0.043375
1.7540,0.094211
1.7560,0.092546
1.7580,0.092677
1.7600,0.147332
1.7620,0.164312
1.7640,0.187284
1.7660,0.239946
1.7680,0.262655
1.7700,0.235579
1.7720,0.249182
1.7740,0.283149
1.7760,0.304453
1.7780,0.323340
1.7800,0.290676
1.7820,0.296524
1.7840,0.313047
1.7860,0.298346
1.7880,0.261250
1.7900,0.252079
1.7920,0.235835
1.7940,0.205317
1.7960,0.151016
1.7980,0.155436
1.8000,0.179086
1.8020,0.114671
1.8040,0.092261
1.8060,0.075833
1.8080,0.064848
1.8100,-0.009094
1.8120,-0.026477
1.8140,0.000913
1.8160,0.004101
1.8180,-0.001384
1.8200,-0.011573
1.8220,-0.015925
1.8240,-0.010233
1.8260,-0.002216
1.8280,-0.007580
1.8300,-0.002299
1.8320,-0.002015
1.8340,0.016080
1.8360,0.015131
1.8380,-0.009229
1.8400,0.006910
1.8420,-0.021957
1.8440,0.006403
1.8460,-0.021820
1.8480,-0.038840
1.8500,-0.000623
1.8520,0.002965
1.8540,-0.000351
1.8560,0.016994
1.8580,-0.027374
1.8600,0.016177
1.8620,0.033093
1.8640,0.010955
1.8660,0.011761
1.8680,0.027683
1.8700,-0.011778
1.8720,0.010261
1.8740,-0.012876
1.8760,0.027644
1.8780,-0.011532
1.8800,0.002196
1.8820,0.013123
1.8840,-0.016391
1.8860,-0.007377
1.8880,0.004364
1.8900,0.025311
1.8920,0.011419
1.8940,-0.016371
1.8960,0.015136
1.8980,-0.031218
1.9000,0.015697
1.9020,-0.021014
1.9040,0.018678
1.9060,0.001043
1.9080,0.004243
1.9100,-0.012765
1.9120,0.010034
1.9140,-0.026317
1.9160,0.020195
1.9180,0.001499
1.9200,0.008755
1.9220,0.043339
1.9240,0.000900
1.9260,0.009230
1.9280,-0.015122
1.9300,0.011560
1.9320,0.017971
1.9340,0.017015
1.9360,-0.009752
1.9380,-0.032766
1.9400,0.000624
1.9420,0.050887
1.9440,0.021668
1.9460,-0.033401
1.9480,-0.013608
1.9500,0.006995
1.9520,-0.025559
1.9540,0.010370
1.9560,0.010958
1.9580,-0.010685
1.9600,-0.005948
1.9620,0.012199
1.9640,0.009678
1.9660,0.022493
1.9680,-0.005632
1.9700,0.008197
1.9720,-0.016414
1.9740,-0.002391
1.9760,0.021281
1.9780,0.000393
1.9800,-0.004600
1.9820,-0.037736
1.9840,-0.016960
1.9860,-0.000072
1.9880,-0.005999
1.9900,0.024224
1.9920,0.031882
1.9940,0.000144
1.9960,0.037423
1.9980,0.016004
2.0000,0.006743
2.0020,-0.027035
2.0040,-0.012967
2.0060,0.002108
2.0080,-0.018730
2.0100,-0.027367
2.0120,-0.004336
2.0140,-0.004195
2.0160,-0.015746
2.0180,-0.007136
2.0200,-0.006901
2.0220,-0.018588
2.0240,-0.019941
2.0260,-0.019628
2.0280,0.000730
2.0300,0.010983
2.0320,0.018749
2.0340,-0.011497
2.0360,0.037605
2.0380,0.038783
2.0400,0.002511
2.0420,-0.019366
2.0440,-0.009155
2.0460,-0.010211
2.0480,-0.022010
2.0500,-0.003625
2.0520,-0.051766
2.0540,0.008831
2.0560,-0.025416
2.0580,-0.014245
2.0600,-0.055191
2.0620,-0.012212
2.0640,-0.003639
2.0660,-0.006264
2.0680,0.004986
2.0700,0.029583
2.0720,0.022422
2.0740,-0.005874
2.0760,0.009906
2.0780,-0.002835
2.0800,0.035927
2.0820,0.040516
2.0840,-0.012745
2.0860,0.015089
2.0880,0.028844
2.0900,-0.000824
2.0920,0.027453
2.0940,-0.002365
2.0960,-0.012572
2.0980,0.003399
2.1000,-0.039602
2.1020,-0.011353
2.1040,-0.023270
2.1060,0.011064
2.1080,0.013028
2.1100,-0.024923
2.1120,0.041429
2.1140,0.007825
2.1160,-0.019634
2.1180,-0.001076
2.1200,0.010861
2.1220,-0.003931
2.1240,0.007788
2.1260,0.012875
2.1280,-0.048326
2.1300,0.009221
2.1320,-0.014038
2.1340,-0.023760
2.1360,-0.019283
2.1380,0.013594
2.1400,0.002333
2.1420,-0.029109
2.1440,-0.008091
2.1460,-0.012423
2.1480,0.014617
2.1500,-0.007612
2.1520,0.019138
2.1540,-0.026640
2.1560,0.016894
2.1580,0.001568
2.1600,-0.015878
2.1620,-0.032444
2.1640,-0.000738
2.1660,-0.012416
2.1680,-0.025726
2.1700,0.052761
2.1720,0.005947
2.1740,-0.013530
2.1760,-0.002843
2.1780,0.002911
2.1800,-0.003049
2.1820,0.020986
2.1840,0.010024
2.1860,-0.021250
2.1880,-0.004357
2.1900,0.031514
2.1920,-0.013544
2.1940,0.001768
2.1960,-0.025995
2.1980,-0.042634
2.2000,-0.021705
2.2020,-0.024710
2.2040,0.017574
2.2060,0.002207
2.2080,0.020405
2.2100,-0.007173
2.2120,-0.006202
2.2140,0.044455
2.2160,0.021046
2.2180,0.007730
2.2200,-0.049641
2.2220,0.025611
2.2240,0.010396
2.2260,-0.001146
2.2280,0.023087
2.2300,0.008076
2.2320,-0.000720
2.2340,0.010867
2.2360,-0.024896
2.2380,-0.020137
2.2400,0.006221
2.2420,-0.025592
2.2440,0.011448
2.2460,-0.041118
2.2480,0.008369
2.2500,-0.035210
2.2520,0.000903
2.2540,-0.000088
2.2560,-0.019110
2.2580,0.004868
2.2600,-0.014344
2.2620,0.014925
2.2640,0.004017
2.2660,0.012817
2.2680,0.003466
2.2700,0.042034
2.2720,0.022381
2.2740,-0.001100
2.2760,-0.026238
2.2780,-0.002542
2.2800,0.021463
2.2820,0.046853
2.2840,-0.011940
2.2860,0.020428
2.2880,0.000850
2.2900,0.000998
2.2920,0.000929
2.2940,-0.011598
2.2960,-0.002169
2.2980,0.006617
2.3000,-0.008964
2.3020,0.060381
2.3040,0.032904
2.3060,0.019557
2.3080,-0.022373
2.3100,0.013069
2.3120,0.016552
2.3140,-0.017573
2.3160,-0.032438
2.3180,0.016021
2.3200,-0.018669
2.3220,-0.011494
2.3240,0.019270
2.3260,0.003106
2.3280,-0.017807
2.3300,0.017308
2.3320,-0.012594
2.3340,-0.010248
2.3360,-0.009784
2.3380,0.014842
2.3400,0.009597
2.3420,0.025038
2.3440,0.063895
2.3460,0.066385
2.3480,0.059642
2.3500,0.054756
2.3520,0.114138
2.3540,0.135600
2.3560,0.124386
2.3580,0.151487
2.3600,0.145993
2.3620,0.154429
2.3640,0.101490
2.3660,0.114738
2.3680,0.122031
2.3700,0.097242
2.3720,0.083588
2.3740,0.062131
2.3760,0.080742
2.3780,-0.000298
2.3800,0.007593
2.3820,0.050405
2.3840,0.009894
2.3860,0.001456
2.3880,-0.018626
2.3900,-0.012506
2.3920,-0.012978
2.3940,-0.065427
2.3960,-0.118836
2.3980,-0.203933
2.4000,1.207924
2.4020,-0.294610
2.4040,-0.248924
2.4060,-0.117367
2.4080,-0.036269
2.4100,-0.078006
2.4120,0.020802
2.4140,-0.002065
2.4160,0.001008
2.4180,-0.021824
2.4200,0.007553
2.4220,0.003477
2.4240,0.003340
2.4260,0.008823
2.4280,0.009634
2.4300,0.004629
2.4320,-0.002762
2.4340,0.025023
2.4360,-0.012321
2.4380,0.003400
2.4400,0.064166
2.4420,0.041982
2.4440,0.049869
2.4460,0.126428
2.4480,0.059742
2.4500,0.154476
2.4520,0.146392
2.4540,0.198791
2.4560,0.199092
2.4580,0.215896
2.4600,0.281185
2.4620,0.264780
2.4640,0.288481
2.4660,0.294245
2.4680,0.320421
2.4700,0.347161
2.4720,0.268833
2.4740,0.321167
2.4760,0.335728
2.4780,0.258039
2.4800,0.285751
2.4820,0.232418
2.4840,0.164134
2.4860,0.194582
2.4880,0.190326
2.4900,0.132399
2.4920,0.133170
2.4940,0.130931
2.4960,0.065367
2.4980,0.062301
2.5000,-0.007023
2.5020,0.029478
2.5040,-0.010291
2.5060,0.007997
2.5080,0.034646
2.5100,-0.019353
2.5120,0.012421
2.5140,-0.020935
2.5160,0.014585
2.5180,0.030102
2.5200,0.000131
2.5220,-0.004723
2.5240,0.042622
2.5260,-0.002262
2.5280,-0.012382
2.5300,-0.042323
2.5320,-0.028542
2.5340,0.008061
2.5360,0.002890
2.5380,0.015601
2.5400,0.025313
2.5420,-0.013527
2.5440,-0.020767
2.5460,-0.010370
2.5480,-0.030502
2.5500,-0.030067
2.5520,-0.021420
2.5540,0.006397
2.5560,0.011405
2.5580,0.013994
2.5600,0.011169
2.5620,-0.007228
2.5640,0.018332
2.5660,0.012556
2.5680,-0.012995
2.5700,0.021000
2.5720,0.029704
2.5740,0.038655
2.5760,-0.033119
2.5780,-0.003273
2.5800,0.010695
2.5820,-0.013577
2.5840,-0.014984
2.5860,0.038639
2.5880,-0.022513
2.5900,-0.048728
2.5920,0.036652
2.5940,0.005586
2.5960,0.034701
2.5980,-0.023126
2.6000,-0.010205
2.6020,0.007816
2.6040,0.019770
2.6060,-0.019451
2.6080,0.003158
2.6100,0.006898
2.6120,-0.007083
2.6140,-0.023531
2.6160,0.032871
2.6180,-0.027621
2.6200,0.004014
2.6220,0.021017
2.6240,0.005096
2.6260,-0.005907
2.6280,0.015452
2.6300,-0.002314
2.6320,0.019728
2.6340,-0.000680
2.6360,-0.016286
2.6380,0.036274
2.6400,0.015300
2.6420,0.019716
2.6440,0.030906
2.6460,0.004378
2.6480,-0.038588
2.6500,-0.020985
2.6520,0.027539
2.6540,-0.004191
2.6560,0.015735
2.6580,-0.009301
2.6600,-0.004979
2.6620,-0.009475
2.6640,0.003422
2.6660,-0.000823
2.6680,0.004589
2.6700,0.012973
2.6720,-0.007028
2.6740,-0.010284
2.6760,0.015055
2.6780,-0.006462
2.6800,-0.010556
2.6820,0.003334
2.6840,0.020885
2.6860,-0.019246
2.6880,-0.003796
2.6900,-0.013338
2.6920,-0.015062
2.6940,0.001818
2.6960,0.004559
2.6980,-0.010772
2.7000,-0.006574
2.7020,0.011896
2.7040,0.009443
2.7060,-0.020346
2.7080,-0.023598
2.7100,0.001245
2.7120,-0.007990
2.7140,0.022127
2.7160,-0.061307
2.7180,0.033406
2.7200,0.018368
2.7220,0.007453
2.7240,-0.006802
2.7260,0.014044
2.7280,-0.026544
2.7300,-0.018737
2.7320,0.021323
2.7340,-0.034303
2.7360,-0.003910
2.7380,0.005037
2.7400,0.020512
2.7420,0.040512
2.7440,0.025334
2.7460,0.035554
2.7480,-0.031002
2.7500,0.016748
2.7520,0.005768
2.7540,0.006659
2.7560,-0.019735
2.7580,0.019287
2.7600,-0.012544
2.7620,0.028522
2.7640,0.000887
2.7660,0.032492
2.7680,0.014993
2.7700,0.032518
2.7720,0.020470
2.7740,-0.029142
2.7760,-0.008383
2.7780,0.024053
2.7800,-0.022633
2.7820,0.014545
2.7840,0.005714
2.7860,-0.009649
2.7880,-0.010631
2.7900,-0.004892
2.7920,-0.009970
2.7940,-0.039531
2.7960,0.000498
2.7980,-0.002797
2.8000,-0.029415
2.8020,0.048918
2.8040,-0.016809
2.8060,-0.016860
2.8080,-0.010969
2.8100,-0.005932
2.8120,0.000300
2.8140,-0.020323
2.8160,0.014574
2.8180,0.015164
2.8200,0.004712
2.8220,0.023194
2.8240,0.004500
2.8260,0.002956
2.8280,0.015522
2.8300,0.044386
2.8320,-0.009622
2.8340,-0.001475
2.8360,-0.036139
2.8380,-0.010625
2.8400,-0.011486
2.8420,-0.034269
2.8440,-0.007692
2.8460,-0.021386
2.8480,0.000138
2.8500,0.016521
2.8520,0.025885
2.8540,-0.018485
2.8560,0.035712
2.8580,-0.001228
2.8600,0.021556
2.8620,-0.020352
2.8640,-0.008297
2.8660,-0.004563
2.8680,-0.010232
2.8700,-0.032707
2.8720,-0.011415
2.8740,0.005449
2.8760,-0.005746
2.8780,-0.021924
2.8800,-0.007675
2.8820,-0.011104
2.8840,0.024305
2.8860,-0.033071
2.8880,0.045073
2.8900,-0.011338
2.8920,-0.003740
2.8940,-0.012028
2.8960,-0.010915
2.8980,0.010862
2.9000,-0.027612
2.9020,-0.001016
2.9040,-0.001058
2.9060,-0.035444
2.9080,-0.012896
2.9100,0.017283
2.9120,0.005518
2.9140,0.003993
2.9160,-0.001442
2.9180,-0.016629
2.9200,-0.009987
2.9220,-0.022762
2.9240,0.002275
2.9260,0.008961
2.9280,-0.000541
2.9300,0.030898
2.9320,-0.002520
2.9340,-0.004110
2.9360,-0.002845
2.9380,0.028576
2.9400,0.011569
2.9420,-0.031631
2.9440,-0.015821
2.9460,0.019102
2.9480,0.016202
2.9500,-0.033397
2.9520,-0.016852
2.9540,0.020115
2.9560,-0.012267
2.9580,-0.012670
2.9600,0.014742
2.9620,0.012900
2.9640,-0.006227
2.9660,-0.009034
2.9680,-0.020603
2.9700,-0.051992
2.9720,0.012506
2.9740,-0.001663
2.9760,0.040257
2.9780,0.042687
2.9800,0.074109
2.9820,0.040283
2.9840,0.080415
2.9860,0.093721
2.9880,0.133937
2.9900,0.118266
2.9920,0.128924
2.9940,0.171520
2.9960,0.131548
2.9980,0.145158
3.0000,0.145345
3.0020,0.108404
3.0040,0.098465
3.0060,0.113022
3.0080,0.123294
3.0100,0.053700
3.0120,0.015076
3.0140,0.027431
3.0160,-0.013097
3.0180,-0.039790
3.0200,-0.004096
3.0220,-0.013403
3.0240,-0.009335
3.0260,-0.017175
3.0280,-0.011932
3.0300,-0.081532
3.0320,-0.112278
3.0340,-0.170592
3.0360,1.227900
3.0380,-0.257685
3.0400,-0.175528
3.0420,-0.117190
3.0440,-0.025687
3.0460,-0.014887
3.0480,-0.031158
3.0500,0.033058
3.0520,-0.014768
3.0540,0.004278
3.0560,-0.031919
3.0580,-0.033567
3.0600,0.010702
3.0620,-0.016035
3.0640,0.024745
3.0660,-0.045712
3.0680,0.036195
3.0700,-0.017571
3.0720,-0.014183
3.0740,0.003682
3.0760,0.057026
3.0780,0.081521
3.0800,0.089843
3.0820,0.098468
3.0840,0.142923
3.0860,0.175466
3.0880,0.161918
3.0900,0.166904
3.0920,0.203582
3.0940,0.214577
3.0960,0.262809
3.0980,0.261698
3.1000,0.295486
3.1020,0.283532
3.1040,0.274301
3.1060,0.312030
3.1080,0.318426
3.1100,0.314274
3.1120,0.261559
3.1140,0.252462
3.1160,0.246862
3.1180,0.249639
3.1200,0.157945
3.1220,0.196188
3.1240,0.206867
3.1260,0.146445
3.1280,0.077324
3.1300,0.103825
3.1320,0.087122
3.1340,0.060796
3.1360,0.003220
3.1380,0.005277
3.1400,-0.023625
3.1420,0.034003
3.1440,-0.002344
3.1460,0.005001
3.1480,0.002912
3.1500,-0.006607
3.1520,-0.012243
3.1540,0.009183
3.1560,-0.015032
3.1580,-0.027979
3.1600,0.009169
3.1620,0.017679
3.1640,0.023204
3.1660,0.010863
3.1680,0.035399
3.1700,0.054275
3.1720,-0.029674
3.1740,-0.002254
3.1760,-0.018461
3.1780,-0.003980
3.1800,-0.005794
3.1820,-0.015232
3.1840,-0.010447
3.1860,0.001901
3.1880,0.011422
3.1900,0.024409
3.1920,-0.006923
3.1940,0.012731
3.1960,-0.016823
3.1980,-0.042966
3.2000,0.022305
3.2020,0.007352
3.2040,0.011195
3.2060,-0.024213
3.2080,-0.029807
3.2100,-0.023967
3.2120,0.016595
3.2140,-0.008805
3.2160,0.017823
3.2180,-0.000892
3.2200,-0.005919
3.2220,-0.001060
3.2240,-0.009752
3.2260,-0.004086
3.2280,0.000854
3.2300,-0.002334
3.2320,-0.006803
3.2340,-0.009914
3.2360,-0.003264
3.2380,-0.000570
3.2400,0.004309
3.2420,0.040161
3.2440,0.027669
3.2460,0.005522
3.2480,0.030862
3.2500,-0.007958
3.2520,-0.029370
3.2540,0.003788
3.2560,0.018293
3.2580,0.001797
3.2600,0.025711
3.2620,0.002926
3.2640,-0.000787
3.2660,-0.024660
3.2680,-0.021829
3.2700,-0.010855
3.2720,-0.006931
3.2740,0.013606
3.2760,0.008540
3.2780,0.007904
3.2800,0.005143
3.2820,0.014546
3.2840,-0.004757
3.2860,0.003777
3.2880,-0.010240
3.2900,-0.031809
3.2920,0.030212
3.2940,-0.048353
3.2960,-0.019778
3.2980,0.023896
3.3000,-0.017852
3.3020,0.004077
3.3040,-0.003878
3.3060,0.017822
3.3080,0.018744
3.3100,-0.007826
3.3120,0.019433
3.3140,0.007581
3.3160,-0.024712
3.3180,-0.010146
3.3200,0.035182
3.3220,0.019419
3.3240,0.004866
3.3260,-0.003672
3.3280,-0.019043
3.3300,-0.003147
3.3320,0.020705
3.3340,0.012977
3.3360,0.016713
3.3380,-0.005030
3.3400,-0.007770
3.3420,-0.032247
3.3440,0.011471
3.3460,0.022510
3.3480,-0.018488
3.3500,-0.007488
3.3520,-0.011186
3.3540,0.014994
3.3560,-0.027830
3.3580,-0.014612
3.3600,-0.033620
3.3620,-0.024965
3.3640,-0.039892
3.3660,0.011612
3.3680,0.003253
3.3700,0.013605
3.3720,-0.009827
3.3740,0.034290
3.3760,-0.020644
3.3780,-0.009571
3.3800,0.007330
3.3820,0.002777
3.3840,0.027566
3.3860,0.001335
3.3880,-0.037864
3.3900,0.001219
3.3920,-0.014532
3.3940,0.011137
3.3960,0.017193
3.3980,0.062329
3.4000,0.027867
3.4020,0.002921
3.4040,-0.025665
3.4060,-0.009496
3.4080,0.012076
3.4100,-0.038127
3.4120,0.023723
3.4140,0.001574
3.4160,0.034212
3.4180,0.008585
3.4200,-0.026001
3.4220,0.013348
3.4240,0.016484
3.4260,-0.013896
3.4280,0.038602
3.4300,0.006148
3.4320,-0.027078
3.4340,0.013549
3.4360,-0.027839
3.4380,-0.027106
3.4400,-0.014742
3.4420,0.003325
3.4440,0.037372
3.4460,-0.022285
3.4480,-0.041357
3.4500,-0.023648
3.4520,0.005578
3.4540,0.001471
3.4560,-0.006521
3.4580,0.011547
3.4600,0.009540
3.4620,0.016957
3.4640,0.024989
3.4660,-0.030599
3.4680,0.003989
3.4700,0.001407
3.4720,0.026950
3.4740,0.012437
3.4760,-0.009709
3.4780,0.007002
3.4800,0.003082
3.4820,0.015859
3.4840,-0.007454
3.4860,-0.024852
3.4880,0.029292
3.4900,0.022775
3.4920,-0.034985
3.4940,-0.000943
3.4960,-0.042115
3.4980,-0.017874
3.5000,0.020174
3.5020,0.001864
3.5040,-0.022544
3.5060,0.004672
3.5080,0.008135
3.5100,-0.020598
3.5120,-0.006503
3.5140,0.073979
3.5160,0.038134
3.5180,-0.055657
3.5200,-0.028527
3.5220,-0.014775
3.5240,0.031118
3.5260,0.049612
3.5280,-0.009787
3.5300,-0.004242
3.5320,0.012238
3.5340,-0.007951
3.5360,0.016909
3.5380,0.015393
3.5400,0.011748
3.5420,-0.004073
3.5440,-0.010011
3.5460,0.029323
3.5480,0.001056
3.5500,-0.008137
3.5520,0.019880
3.5540,0.026540
3.5560,0.001207
3.5580,-0.008515
3.5600,0.030867
3.5620,-0.020316
3.5640,0.024069
3.5660,-0.033413
3.5680,0.014510
3.5700,-0.020122
3.5720,0.040728
3.5740,0.038312
3.5760,0.042837
3.5780,-0.016259
3.5800,0.036185
3.5820,-0.002744
3.5840,-0.011060
3.5860,-0.055548
3.5880,0.024793
3.5900,-0.013146
3.5920,0.023362
3.5940,0.059379
3.5960,0.080999
3.5980,0.101864
3.6000,0.130352
3.6020,0.098094
3.6040,0.122607
3.6060,0.173330
3.6080,0.124203
3.6100,0.131612
3.6120,0.140985
3.6140,0.110788
3.6160,0.122631
3.6180,0.130268
3.6200,0.090359
3.6220,0.105566
3.6240,0.070530
3.6260,0.027607
3.6280,0.011377
3.6300,-0.017044
3.6320,-0.024924
3.6340,0.007935
3.6360,-0.008952
3.6380,-0.003259
3.6400,-0.001629
3.6420,-0.060947
3.6440,-0.088019
3.6460,-0.206502
3.6480,1.166312
3.6500,-0.245431
3.6520,-0.192782
3.6540,-0.084634
3.6560,-0.038513
3.6580,-0.021656
3.6600,0.004043
3.6620,-0.024858
3.6640,-0.018337
3.6660,-0.007227
3.6680,0.008972
3.6700,0.002259
3.6720,-0.026139
3.6740,-0.005175
3.6760,-0.010279
3.6780,-0.004863
3.6800,-0.008913
3.6820,0.025206
3.6840,-0.020946
3.6860,0.001607
3.6880,0.024649
3.6900,0.059343
3.6920,0.078766
3.6940,0.083723
3.6960,0.118390
3.6980,0.119935
3.7000,0.143496
3.7020,0.183398
3.7040,0.201850
3.7060,0.200508
3.7080,0.270899
3.7100,0.228980
3.7120,0.257846
3.7140,0.297813
3.7160,0.315065
3.7180,0.297363
3.7200,0.301446
3.7220,0.325682
3.7240,0.328846
3.7260,0.219591
3.7280,0.265414
3.7300,0.240004
3.7320,0.192802
3.7340,0.191653
3.7360,0.147210
3.7380,0.099598
3.7400,0.140528
3.7420,0.111721
3.7440,0.057441
3.7460,0.073260
3.7480,0.043658
3.7500,0.041991
3.7520,-0.014215
3.7540,0.008888
3.7560,0.007763
3.7580,0.019895
3.7600,0.032632
3.7620,0.014176
3.7640,0.020651
3.7660,-0.019528
3.7680,0.003944
3.7700,0.006932
3.7720,0.014152
3.7740,0.036852
3.7760,-0.035792
3.7780,0.003554
3.7800,-0.003363
3.7820,-0.011924
3.7840,0.012387
3.7860,0.008388
3.7880,-0.015344
3.7900,-0.001303
3.7920,-0.031873
3.7940,-0.011027
3.7960,-0.019637
3.7980,0.012179
3.8000,0.007857
3.8020,-0.038801
3.8040,-0.021050
3.8060,-0.035961
3.8080,-0.010912
3.8100,0.003455
3.8120,-0.015167
3.8140,-0.031007
3.8160,-0.017985
3.8180,-0.013279
3.8200,0.000379
3.8220,-0.019747
3.8240,-0.005559
3.8260,0.041591
3.8280,-0.006816
3.8300,0.002132
3.8320,0.017763
3.8340,0.007042
3.8360,0.020103
3.8380,-0.016650
3.8400,-0.021450
3.8420,0.043867
3.8440,-0.012968
3.8460,0.023744
3.8480,-0.037234
3.8500,0.007117
3.8520,-0.002990
3.8540,0.032211
3.8560,0.007920
3.8580,-0.008344
3.8600,-0.015672
3.8620,0.024169
3.8640,0.019478
3.8660,0.022224
3.8680,0.000029
3.8700,-0.021026
3.8720,-0.017126
3.8740,0.009714
3.8760,0.004847
3.8780,0.018206
3.8800,0.005085
3.8820,-0.018561
3.8840,-0.022240
3.8860,0.036123
3.8880,0.007892
3.8900,-0.010189
3.8920,-0.004259
3.8940,0.010037
3.8960,0.007880
3.8980,0.019743
3.9000,0.014565
3.9020,-0.002544
3.9040,0.018823
3.9060,-0.018024
3.9080,0.026087
3.9100,0.007399
3.9120,0.000446
3.9140,0.048163
3.9160,-0.006001
3.9180,-0.000630
3.9200,0.006121
3.9220,-0.000754
3.9240,0.028088
3.9260,0.029180
3.9280,-0.032307
3.9300,0.006307
3.9320,0.005410
3.9340,0.025556
3.9360,0.003873
3.9380,-0.008650
3.9400,-0.003239
3.9420,0.014660
3.9440,-0.004985
3.9460,0.000113
3.9480,0.017394
3.9500,-0.007514
3.9520,0.007173
3.9540,0.002147
3.9560,-0.005939
3.9580,0.027962
3.9600,0.017381
3.9620,0.010783
3.9640,-0.009135
3.9660,0.014550
3.9680,0.007037
3.9700,0.002910
3.9720,0.019876
3.9740,0.020877
3.9760,0.004128
3.9780,0.021490
3.9800,-0.000491
3.9820,-0.027486
3.9840,-0.044182
3.9860,0.003691
3.9880,0.003673
3.9900,0.027226
3.9920,0.030912
3.9940,-0.002925
3.9960,0.048220
3.9980,-0.015210
4.0000,-0.005024
4.0020,-0.025363
4.0040,0.012154
4.0060,0.021838
4.0080,0.008228
4.0100,-0.004132
4.0120,0.014819
4.0140,0.010359
4.0160,-0.014103
4.0180,-0.037892
4.0200,-0.031465
4.0220,-0.014736
4.0240,0.015780
4.0260,0.001666
4.0280,-0.022621
4.0300,0.006191
4.0320,0.000787
4.0340,0.030976
4.0360,-0.031247
4.0380,0.007424
4.0400,-0.015811
4.0420,-0.007644
4.0440,-0.002155
4.0460,-0.022477
4.0480,-0.023730
4.0500,0.003312
4.0520,0.025667
4.0540,0.015908
4.0560,-0.000339
4.0580,0.020202
4.0600,-0.021969
4.0620,0.006839
4.0640,-0.006515
4.0660,0.005436
4.0680,0.002619
4.0700,-0.016438
4.0720,-0.014453
4.0740,0.032905
4.0760,-0.008681
4.0780,0.011058
4.0800,-0.024209
4.0820,-0.024885
4.0840,0.005511
4.0860,0.012431
4.0880,-0.005854
4.0900,-0.007213
4.0920,-0.004386
4.0940,-0.018144
4.0960,-0.016983
4.0980,0.017207
4.1000,0.046457
4.1020,0.029707
4.1040,-0.007580
4.1060,0.013713
4.1080,0.002337
4.1100,0.000388
4.1120,-0.020302
4.1140,-0.007289
4.1160,-0.019949
4.1180,0.011005
4.1200,0.023589
4.1220,-0.059476
4.1240,0.034359
4.1260,-0.048280
4.1280,0.025055
4.1300,0.007582
4.1320,-0.026014
4.1340,0.011746
4.1360,-0.006709
4.1380,0.004376
4.1400,0.002595
4.1420,-0.015219
4.1440,-0.008600
4.1460,0.018419
4.1480,-0.012929
4.1500,-0.033688
4.1520,0.031398
4.1540,0.022845
4.1560,0.017395
4.1580,-0.009975
4.1600,-0.053094
4.1620,-0.027906
4.1640,0.014942
4.1660,0.017071
4.1680,0.021375
4.1700,0.009436
4.1720,0.022915
4.1740,-0.000930
4.1760,-0.018018
4.1780,-0.045906
4.1800,0.051230
4.1820,0.029958
4.1840,-0.014650
4.1860,-0.006824
4.1880,-0.006418
4.1900,0.022023
4.1920,-0.034429
4.1940,0.002099
4.1960,-0.001814
4.1980,0.019073
4.2000,-0.044928
4.2020,0.013226
4.2040,0.000557
4.2060,0.021439
4.2080,-0.007443
4.2100,-0.054216
4.2120,-0.029643
4.2140,-0.014703
4.2160,0.004035
4.2180,0.023808
4.2200,0.012768
4.2220,-0.038461
4.2240,-0.004620
4.2260,-0.027009
4.2280,0.016073
4.2300,0.017443
4.2320,0.049912
4.2340,0.100340
4.2360,0.109832
4.2380,0.092659
4.2400,0.119460
4.2420,0.123998
4.2440,0.099450
4.2460,0.141347
4.2480,0.142919
4.2500,0.174928
4.2520,0.129771
4.2540,0.103991
4.2560,0.089783
4.2580,0.109192
4.2600,0.075270
4.2620,0.075148
4.2640,0.035778
4.2660,0.053257
4.2680,-0.028506
4.2700,-0.026218
4.2720,0.041115
4.2740,-0.030439
4.2760,0.003553
4.2780,-0.061077
4.2800,-0.024140
4.2820,-0.053879
4.2840,-0.126200
4.2860,-0.157775
4.2880,1.197660
4.2900,-0.278856
4.2920,-0.207020
4.2940,-0.083614
4.2960,-0.001343
4.2980,-0.045883
4.3000,-0.012107
4.3020,0.006687
4.3040,0.003934
4.3060,0.007523
4.3080,-0.025148
4.3100,-0.021188
4.3120,0.017972
4.3140,-0.005492
4.3160,-0.004556
4.3180,0.011412
4.3200,0.011164
4.3220,-0.031036
4.3240,-0.009726
4.3260,0.005969
4.3280,0.021821
4.3300,0.008769
4.3320,0.090294
4.3340,0.076275
4.3360,0.113697
4.3380,0.133504
4.3400,0.181831
4.3420,0.176891
4.3440,0.238034
4.3460,0.240034
4.3480,0.260971
4.3500,0.244592
4.3520,0.281229
4.3540,0.315383
4.3560,0.296735
4.3580,0.298455
4.3600,0.284042
4.3620,0.305052
4.3640,0.311709
4.3660,0.263746
4.3680,0.220774
4.3700,0.221898
4.3720,0.211664
4.3740,0.197932
4.3760,0.137815
4.3780,0.139968
4.3800,0.128108
4.3820,0.088620
4.3840,0.092979
4.3860,0.067887
4.3880,-0.016311
4.3900,-0.005050
4.3920,0.028656
4.3940,-0.007143
4.3960,-0.007587
4.3980,-0.015216
4.4000,0.004948
4.4020,0.013512
4.4040,-0.007280
4.4060,-0.044001
4.4080,-0.013952
4.4100,-0.006547
4.4120,-0.007801
4.4140,-0.007069
4.4160,-0.016837
4.4180,0.008746
4.4200,-0.007826
4.4220,-0.001239
4.4240,0.006810
4.4260,-0.045779
4.4280,0.001021
4.4300,-0.012417
4.4320,0.009309
4.4340,-0.003742
4.4360,-0.018287
4.4380,0.061331
4.4400,0.014509
4.4420,0.001026
4.4440,0.002320
4.4460,0.035746
4.4480,0.008900
4.4500,-0.013813
4.4520,0.016002
4.4540,0.017253
4.4560,0.012497
4.4580,-0.029240
4.4600,-0.018558
4.4620,-0.009743
4.4640,-0.037560
4.4660,0.005479
4.4680,0.027864
4.4700,0.025594
4.4720,0.004584
4.4740,-0.018552
4.4760,0.003904
4.4780,-0.032872
4.4800,-0.029057
4.4820,0.013312
4.4840,-0.035114
4.4860,-0.008694
4.4880,-0.007264
4.4900,-0.048687
4.4920,-0.024959
4.4940,-0.027538
4.4960,-0.010716
4.4980,-0.017427
4.5000,0.007086
4.5020,-0.009315
4.5040,0.027897
4.5060,-0.010710
4.5080,0.047230
4.5100,-0.000585
4.5120,0.018037
4.5140,0.020520
4.5160,-0.003866
4.5180,0.036425
4.5200,0.043030
4.5220,-0.028573
4.5240,-0.006253
4.5260,0.029456
4.5280,0.003951
4.5300,0.052717
4.5320,0.002516
4.5340,-0.003144
4.5360,-0.019463
4.5380,-0.013846
4.5400,0.038188
4.5420,-0.016462
4.5440,-0.008191
4.5460,-0.023664
4.5480,-0.013072
4.5500,0.030050
4.5520,-0.020274
4.5540,-0.037710
4.5560,-0.013967
4.5580,-0.004546
4.5600,-0.041359
4.5620,-0.034942
4.5640,0.055214
4.5660,-0.033437
4.5680,-0.046719
4.5700,-0.026639
4.5720,0.009371
4.5740,-0.051618
4.5760,0.016826
4.5780,0.002758
4.5800,0.003408
4.5820,0.013809
4.5840,0.051137
4.5860,0.017834
4.5880,-0.006820
4.5900,-0.035835
4.5920,0.005527
4.5940,-0.017008
4.5960,-0.006699
4.5980,0.012743
4.6000,0.010799
4.6020,-0.007830
4.6040,0.014380
4.6060,-0.033991
4.6080,0.003981
4.6100,-0.013976
4.6120,0.010720
4.6140,-0.011757
4.6160,0.020081
4.6180,0.002310
4.6200,-0.008491
4.6220,-0.017268
4.6240,0.024029
4.6260,0.013666
4.6280,0.041491
4.6300,0.007795
4.6320,0.011297
4.6340,-0.028111
4.6360,0.014353
4.6380,0.017151
4.6400,-0.030412
4.6420,0.004946
4.6440,-0.043212
4.6460,-0.020136
4.6480,-0.030414
4.6500,0.010309
4.6520,0.021187
4.6540,0.007509
4.6560,0.014324
4.6580,-0.001877
4.6600,0.021477
4.6620,0.016049
4.6640,-0.006829
4.6660,0.009285
4.6680,-0.006553
4.6700,-0.011228
4.6720,0.020120
4.6740,0.001440
4.6760,-0.034611
4.6780,0.020442
4.6800,0.013398
4.6820,0.035310
4.6840,-0.012571
4.6860,0.027233
4.6880,0.002156
4.6900,0.018882
4.6920,-0.002102
4.6940,0.026483
4.6960,0.015259
4.6980,0.019908
4.7000,-0.009742
4.7020,0.018726
4.7040,0.020835
4.7060,-0.007213
4.7080,0.008408
4.7100,0.039064
4.7120,-0.006505
4.7140,-0.001372
4.7160,0.022654
4.7180,-0.004805
4.7200,0.018655
4.7220,-0.010656
4.7240,-0.001089
4.7260,0.005138
4.7280,-0.028674
4.7300,-0.006418
4.7320,-0.002763
4.7340,-0.019251
4.7360,0.008841
4.7380,0.020104
4.7400,0.003544
4.7420,-0.015658
4.7440,0.013215
4.7460,-0.000501
4.7480,-0.016024
4.7500,-0.011899
4.7520,0.002831
4.7540,-0.009067
4.7560,-0.001044
4.7580,0.027447
4.7600,0.008449
4.7620,-0.003827
4.7640,-0.000710
4.7660,0.012938
4.7680,-0.021003
4.7700,0.007403
4.7720,-0.018107
4.7740,0.004528
4.7760,-0.024487
4.7780,0.002292
4.7800,0.011151
4.7820,0.017196
4.7840,-0.009677
4.7860,-0.004529
4.7880,-0.001925
4.7900,-0.015897
4.7920,0.039702
4.7940,-0.004287
4.7960,0.000253
4.7980,-0.026005
4.8000,0.021930
4.8020,0.001240
4.8040,-0.013483
4.8060,-0.026190
4.8080,-0.001735
4.8100,-0.024908
4.8120,-0.005828
4.8140,-0.029530
4.8160,-0.029596
4.8180,0.006586
4.8200,-0.008040
4.8220,0.009706
4.8240,0.002325
4.8260,0.031406
4.8280,0.023570
4.8300,-0.038684
4.8320,-0.011163
4.8340,0.005590
4.8360,-0.007646
4.8380,0.001596
4.8400,0.002952
4.8420,-0.009360
4.8440,0.007525
4.8460,0.033403
4.8480,-0.024512
4.8500,0.001793
4.8520,-0.033047
4.8540,-0.014453
4.8560,-0.009903
4.8580,0.012669
4.8600,0.020705
4.8620,0.015130
4.8640,-0.001503
4.8660,0.005700
4.8680,-0.000296
4.8700,-0.011124
4.8720,-0.018214
4.8740,-0.004904
4.8760,0.000617
4.8780,0.000470
4.8800,0.010466
4.8820,-0.020508
4.8840,-0.013112
4.8860,0.001114
4.8880,0.012633
4.8900,-0.014387
4.8920,-0.002710
4.8940,-0.004805
4.8960,0.001069
4.8980,0.035266
4.9000,-0.004530
4.9020,-0.012611
4.9040,-0.000523
4.9060,0.016095
4.9080,-0.011881
4.9100,-0.022139
4.9120,-0.001961
4.9140,0.002122
4.9160,-0.003786
4.9180,0.015901
4.9200,0.035111
4.9220,0.019728
4.9240,0.077594
4.9260,0.075788
4.9280,0.109741
4.9300,0.104701
4.9320,0.159890
4.9340,0.181995
4.9360,0.150169
4.9380,0.170904
4.9400,0.170792
4.9420,0.162624
4.9440,0.134119
4.9460,0.137440
4.9480,0.085491
4.9500,0.018159
4.9520,0.035620
4.9540,0.077565
4.9560,0.003490
4.9580,0.010740
4.9600,0.013689
4.9620,0.013347
4.9640,-0.008409
4.9660,-0.015974
4.9680,-0.024514
4.9700,-0.020200
4.9720,-0.087899
4.9740,-0.123507
4.9760,-0.167293
4.9780,1.175209
4.9800,-0.286174
4.9820,-0.193961
4.9840,-0.123349
4.9860,-0.062257
4.9880,0.007697
4.9900,-0.011391
4.9920,0.016989
4.9940,-0.014664
4.9960,-0.020287
4.9980,0.001385
5.0000,-0.022600
5.0020,0.008129
5.0040,-0.020557
5.0060,-0.047177
5.0080,-0.001824
5.0100,-0.022889
5.0120,-0.025558
5.0140,-0.010275
5.0160,-0.005568
5.0180,0.050974
5.0200,0.081127
5.0220,0.091253
5.0240,0.103297
5.0260,0.115348
5.0280,0.148902
5.0300,0.177873
5.0320,0.181512
5.0340,0.227427
5.0360,0.224045
5.0380,0.245549
5.0400,0.286174
5.0420,0.277007
5.0440,0.245224
5.0460,0.298800
5.0480,0.288526
5.0500,0.291657
5.0520,0.312827
5.0540,0.301488
5.0560,0.282345
5.0580,0.283480
5.0600,0.235986
5.0620,0.204159
5.0640,0.162293
5.0660,0.160202
5.0680,0.162907
5.0700,0.094722
5.0720,0.095872
5.0740,0.107579
5.0760,0.087509
5.0780,0.036671
5.0800,0.015543
5.0820,-0.019185
5.0840,-0.020086
5.0860,-0.000200
5.0880,0.026523
5.0900,-0.015789
5.0920,-0.003119
5.0940,-0.015431
5.0960,0.026336
5.0980,-0.002590
5.1000,-0.033305
5.1020,-0.014422
5.1040,-0.004400
5.1060,0.006571
5.1080,0.014647
5.1100,0.031875
5.1120,0.000736
5.1140,0.042616
5.1160,0.003747
5.1180,-0.010387
5.1200,-0.012527
5.1220,-0.008462
5.1240,-0.037214
5.1260,0.006480
5.1280,-0.022551
5.1300,0.048913
5.1320,0.051143
5.1340,-0.000314
5.1360,-0.030359
5.1380,0.015687
5.1400,0.017839
5.1420,0.014405
5.1440,-0.009569
5.1460,0.013940
5.1480,-0.004012
5.1500,-0.005830
5.1520,0.029979
5.1540,0.023305
5.1560,-0.023447
5.1580,0.030371
5.1600,0.029152
5.1620,-0.026202
5.1640,0.006581
5.1660,0.012263
5.1680,0.015253
5.1700,-0.013403
5.1720,0.002204
5.1740,0.001751
5.1760,-0.022625
5.1780,0.015098
5.1800,-0.026852
5.1820,0.005729
5.1840,-0.027276
5.1860,0.017960
5.1880,0.014525
5.1900,-0.017555
5.1920,0.002404
5.1940,0.000005
5.1960,-0.021556
5.1980,0.021800
5.2000,0.001809
5.2020,0.012689
5.2040,0.007861
5.2060,0.012752
5.2080,-0.011956
5.2100,0.008950
5.2120,-0.034152
5.2140,-0.007678
5.2160,-0.024649
5.2180,-0.015321
5.2200,0.007315
5.2220,-0.000023
5.2240,-0.002542
5.2260,0.013973
5.2280,0.021132
5.2300,0.032299
5.2320,-0.013087
5.2340,-0.007351
5.2360,0.033473
5.2380,0.001836
5.2400,-0.008688
5.2420,0.002005
5.2440,0.048676
5.2460,-0.036895
5.2480,0.004766
5.2500,0.043762
5.2520,0.023036
5.2540,-0.011005
5.2560,-0.021276
5.2580,-0.031037
5.2600,-0.011400
5.2620,-0.000937
5.2640,-0.050468
5.2660,-0.004254
5.2680,0.015301
5.2700,-0.005091
5.2720,-0.005478
5.2740,0.005540
5.2760,-0.006195
5.2780,-0.015210
5.2800,-0.025412
5.2820,0.021596
5.2840,0.005626
5.2860,-0.038222
5.2880,0.041507
5.2900,-0.001182
5.2920,-0.000046
5.2940,0.000912
5.2960,-0.019120
5.2980,-0.031778
5.3000,-0.014755
5.3020,-0.011647
5.3040,-0.016984
5.3060,0.004418
5.3080,-0.003243
5.3100,-0.014439
5.3120,0.005299
5.3140,0.000127
5.3160,-0.021803
5.3180,0.005169
5.3200,0.002040
5.3220,0.010651
5.3240,0.005625
5.3260,-0.014981
5.3280,-0.012605
5.3300,-0.007744
5.3320,-0.020872
5.3340,0.016803
5.3360,0.004598
5.3380,0.010827
5.3400,-0.020950
5.3420,0.008561
5.3440,-0.007102
5.3460,-0.019170
5.3480,0.003650
5.3500,0.002168
5.3520,-0.033383
5.3540,-0.009018
5.3560,0.025272
5.3580,0.000091
5.3600,-0.014380
5.3620,-0.005756
5.3640,-0.025286
5.3660,-0.013121
5.3680,-0.025902
5.3700,-0.012629
5.3720,-0.020599
5.3740,-0.027654
5.3760,-0.022837
5.3780,-0.018778
5.3800,-0.003460
5.3820,-0.001852
5.3840,0.039819
5.3860,0.013988
5.3880,-0.008119
5.3900,0.008163
5.3920,0.015606
5.3940,-0.013963
5.3960,0.006681
5.3980,-0.024998
5.4000,0.005896
5.4020,-0.000798
5.4040,-0.019137
5.4060,-0.002544
5.4080,-0.012736
5.4100,0.011560
5.4120,-0.002630
5.4140,0.045255
5.4160,0.013036
5.4180,-0.045228
5.4200,-0.010263
5.4220,0.005750
5.4240,-0.014913
5.4260,0.036869
5.4280,0.046634
5.4300,-0.004172
5.4320,-0.021606
5.4340,-0.008886
5.4360,-0.008002
5.4380,-0.009103
5.4400,-0.006284
5.4420,0.024414
5.4440,-0.009347
5.4460,-0.004495
5.4480,-0.026821
5.4500,0.009341
5.4520,-0.008308
5.4540,-0.028357
5.4560,-0.005165
5.4580,0.023255
5.4600,-0.014018
5.4620,-0.001434
5.4640,0.005355
5.4660,-0.020114
5.4680,-0.029890
5.4700,-0.004458
5.4720,0.019083
5.4740,0.015759
5.4760,-0.002939
5.4780,0.014951
5.4800,-0.023164
5.4820,0.044762
5.4840,0.012722
5.4860,0.010960
5.4880,0.038219
5.4900,0.005777
5.4920,0.005976
5.4940,-0.032470
5.4960,-0.051940
5.4980,-0.014518
5.5000,-0.011721
5.5020,0.027400
5.5040,0.022559
5.5060,0.006951
5.5080,0.009866
5.5100,0.000963
5.5120,-0.024846
5.5140,-0.016913
5.5160,-0.000800
5.5180,-0.022072
5.5200,-0.012748
5.5220,-0.007524
5.5240,0.016158
5.5260,0.015685
5.5280,0.025978
5.5300,0.002396
5.5320,-0.029446
5.5340,0.033910
5.5360,-0.014713
5.5380,-0.002485
5.5400,-0.017678
5.5420,0.032200
5.5440,0.036315
5.5460,-0.001208
5.5480,0.012886
5.5500,-0.016421
5.5520,-0.010110
5.5540,0.011107
5.5560,0.018954
5.5580,-0.014096
5.5600,0.021760
5.5620,-0.010660
5.5640,0.032227
5.5660,-0.018658
5.5680,-0.031316
5.5700,-0.031781
5.5720,-0.024198
5.5740,-0.015266
5.5760,0.011002
5.5780,-0.003282
5.5800,0.004323
5.5820,-0.004535
5.5840,-0.001479
5.5860,0.011422
5.5880,-0.024429
5.5900,0.007511
5.5920,0.020907
5.5940,-0.005673
5.5960,0.007846
5.5980,-0.017101
5.6000,0.042356
5.6020,-0.026998
5.6040,0.003541
5.6060,0.003742
5.6080,0.014114
5.6100,0.026345
5.6120,0.002813
5.6140,-0.005853
5.6160,-0.003886
5.6180,-0.024573
5.6200,0.017453
5.6220,0.011618
5.6240,-0.014476
5.6260,-0.002466
5.6280,-0.002609
5.6300,0.018993
5.6320,0.017750
5.6340,0.006553
5.6360,-0.023433
5.6380,-0.001504
5.6400,0.017737
5.6420,0.053577
5.6440,0.031385
5.6460,0.042220
5.6480,0.069882
5.6500,0.080763
5.6520,0.118615
5.6540,0.143416
5.6560,0.167827
5.6580,0.138560
5.6600,0.176537
5.6620,0.129038
5.6640,0.162534
5.6660,0.120865
5.6680,0.076541
5.6700,0.072557
5.6720,0.056593
5.6740,0.082703
5.6760,0.057739
5.6780,0.014394
5.6800,-0.012618
5.6820,0.008078
5.6840,-0.014959
5.6860,0.006376
5.6880,0.006731
5.6900,-0.000642
5.6920,-0.045145
5.6940,-0.126477
5.6960,-0.161626
5.6980,1.200317
5.7000,-0.282444
5.7020,-0.184595
5.7040,-0.079890
5.7060,-0.027843
5.7080,0.000492
5.7100,-0.042252
5.7120,0.010805
5.7140,0.005272
5.7160,-0.038325
5.7180,-0.018203
5.7200,-0.005476
5.7220,-0.011442
5.7240,-0.004231
5.7260,-0.014403
5.7280,-0.019517
5.7300,-0.039535
5.7320,0.009707
5.7340,-0.003635
5.7360,-0.000258
5.7380,0.062695
5.7400,0.045639
5.7420,0.072830
5.7440,0.089070
5.7460,0.105939
5.7480,0.134424
5.7500,0.169026
5.7520,0.184769
5.7540,0.216987
5.7560,0.200220
5.7580,0.275516
5.7600,0.242095
5.7620,0.242005
5.7640,0.248294
5.7660,0.312085
5.7680,0.287379
5.7700,0.266712
5.7720,0.273409
5.7740,0.278900
5.7760,0.293550
5.7780,0.230600
5.7800,0.227259
5.7820,0.196991
5.7840,0.162309
5.7860,0.157363
5.7880,0.147874
5.7900,0.110114
5.7920,0.079568
5.7940,0.097204
5.7960,0.033257
5.7980,-0.015256
5.8000,0.000293
5.8020,0.008650
5.8040,0.001318
5.8060,-0.014439
5.8080,-0.017626
5.8100,0.007204
5.8120,-0.015828
5.8140,0.017585
5.8160,-0.020509
5.8180,0.009999
5.8200,-0.005178
5.8220,-0.018349
5.8240,-0.003238
5.8260,0.007441
5.8280,-0.025834
5.8300,-0.034591
5.8320,0.004500
5.8340,0.008600
5.8360,0.027199
5.8380,0.009303
5.8400,0.017034
5.8420,-0.025549
5.8440,-0.015710
5.8460,0.011333
5.8480,-0.025028
5.8500,-0.009980
5.8520,0.017370
5.8540,-0.006344
5.8560,0.003938
5.8580,0.003253
5.8600,0.004220
5.8620,0.032892
5.8640,-0.036266
5.8660,0.002722
5.8680,-0.016645
5.8700,-0.005215
5.8720,-0.024659
5.8740,-0.013628
5.8760,-0.005998
5.8780,0.028815
5.8800,-0.003813
5.8820,-0.011010
5.8840,-0.005012
5.8860,-0.017363
5.8880,0.028925
5.8900,-0.000700
5.8920,0.014688
5.8940,-0.005719
5.8960,-0.015478
5.8980,-0.002325
5.9000,0.014815
5.9020,0.000841
5.9040,-0.005486
5.9060,0.030395
5.9080,0.021518
5.9100,0.005906
5.9120,-0.021764
5.9140,-0.008960
5.9160,-0.026216
5.9180,0.032160
5.9200,0.008010
5.9220,-0.028102
5.9240,0.025992
5.9260,0.002223
5.9280,-0.008965
5.9300,0.002375
5.9320,-0.034102
5.9340,0.004736
5.9360,-0.004748
5.9380,-0.002948
5.9400,0.006733
5.9420,0.007196
5.9440,0.009123
5.9460,-0.015166
5.9480,0.008419
5.9500,-0.007991
5.9520,-0.008553
5.9540,0.000264
5.9560,0.018218
5.9580,0.018767
5.9600,-0.041791
5.9620,-0.009262
5.9640,0.008227
5.9660,0.008434
5.9680,-0.011654
5.9700,0.010153
5.9720,0.003738
5.9740,-0.005748
5.9760,0.029753
5.9780,0.002686
5.9800,0.011704
5.9820,0.022790
5.9840,0.006843
5.9860,0.011850
5.9880,0.018848
5.9900,-0.019606
5.9920,-0.022938
5.9940,0.011695
5.9960,-0.003436
5.9980,0.004398
6.0000,0.002390
6.0020,-0.009130
6.0040,-0.016250
6.0060,0.030520
6.0080,-0.029563
6.0100,0.013317
6.0120,0.029315
6.0140,0.015796
6.0160,-0.021868
6.0180,-0.016783
6.0200,0.011361
6.0220,0.026132
6.0240,0.020846
6.0260,-0.028534
6.0280,-0.006729
6.0300,0.009649
6.0320,-0.014231
6.0340,-0.025391
6.0360,0.019384
6.0380,-0.019646
6.0400,0.018569
6.0420,0.007615
6.0440,0.002462
6.0460,-0.020545
6.0480,-0.001346
6.0500,0.000739
6.0520,0.023698
6.0540,0.010549
6.0560,0.001520
6.0580,0.004292
6.0600,-0.024183
6.0620,0.000833
6.0640,0.008365
6.0660,-0.009623
6.0680,-0.005855
6.0700,-0.017392
6.0720,0.034865
6.0740,0.023932
6.0760,-0.033403
6.0780,0.003675
6.0800,-0.008434
6.0820,0.018449
6.0840,-0.031652
6.0860,0.005090
6.0880,0.030179
6.0900,-0.026130
6.0920,0.018723
6.0940,-0.014019
6.0960,0.027827
6.0980,-0.003278
6.1000,-0.007421
6.1020,0.039275
6.1040,-0.007678
6.1060,0.010021
6.1080,0.002412
6.1100,0.004278
6.1120,-0.013453
6.1140,-0.015444
6.1160,-0.030033
6.1180,0.016319
6.1200,0.014709
6.1220,0.022398
6.1240,-0.020061
6.1260,-0.000742
6.1280,0.016125
6.1300,-0.020952
6.1320,0.000917
6.1340,0.017037
6.1360,0.013316
6.1380,0.014712
6.1400,0.000971
6.1420,-0.021998
6.1440,-0.007620
6.1460,0.029993
6.1480,0.017445
6.1500,0.023297
6.1520,0.007878
6.1540,0.022003
6.1560,0.041340
6.1580,0.007191
6.1600,0.009415
6.1620,-0.011953
6.1640,0.013440
6.1660,0.002969
6.1680,-0.021177
6.1700,-0.006334
6.1720,0.013808
6.1740,-0.004132
6.1760,0.013930
6.1780,-0.003140
6.1800,-0.011082
6.1820,0.018205
6.1840,-0.014949
6.1860,0.015007
6.1880,0.012945
6.1900,-0.009939
6.1920,-0.004979
6.1940,0.010354
6.1960,0.003840
6.1980,0.013889
6.2000,0.024576
6.2020,0.021828
6.2040,0.009290
6.2060,-0.004659
6.2080,0.021333
6.2100,0.028315
6.2120,0.014578
6.2140,-0.012151
6.2160,-0.017933
6.2180,0.035261
6.2200,0.025108
6.2220,-0.001365
6.2240,-0.008745
6.2260,0.023654
6.2280,0.047337
6.2300,0.003478
6.2320,-0.012146
6.2340,-0.002487
6.2360,-0.016083
6.2380,0.011183
6.2400,0.015584
6.2420,0.038997
6.2440,0.009642
6.2460,-0.022284
6.2480,0.022986
6.2500,-0.035440
6.2520,-0.004866
6.2540,0.002856
6.2560,-0.017091
6.2580,-0.012319
6.2600,-0.027194
6.2620,0.008758
6.2640,0.012841
6.2660,0.027866
6.2680,0.028906
6.2700,0.020570
6.2720,0.033335
6.2740,-0.044371
6.2760,-0.019599
6.2780,0.030082
6.2800,0.000544
6.2820,0.011504
6.2840,-0.032050
6.2860,0.013167
6.2880,0.014319
6.2900,-0.004805
6.2920,0.004656
6.2940,0.001707
6.2960,-0.018791
6.2980,0.016858
6.3000,0.009773
6.3020,0.009831
6.3040,0.009355
6.3060,-0.001658
6.3080,-0.037133
6.3100,0.008215
6.3120,-0.024450
6.3140,-0.002381
6.3160,0.002404
6.3180,0.024872
6.3200,-0.016158
6.3220,0.014491
6.3240,0.049517
6.3260,0.004559
6.3280,0.019228
6.3300,0.049877
6.3320,0.056736
6.3340,0.067332
6.3360,0.084594
6.3380,0.084532
6.3400,0.133177
6.3420,0.089942
6.3440,0.158643
6.3460,0.166462
6.3480,0.172035
6.3500,0.139006
6.3520,0.092806
6.3540,0.144421
6.3560,0.101479
6.3580,0.079905
6.3600,0.047478
6.3620,0.029975
6.3640,0.042241
6.3660,0.037140
6.3680,-0.017120
6.3700,-0.023680
6.3720,-0.024699
6.3740,0.043239
6.3760,0.002703
6.3780,-0.036473
6.3800,-0.054998
6.3820,-0.089732
6.3840,-0.144858
6.3860,-0.170570
6.3880,1.234815
6.3900,-0.239077
6.3920,-0.144926
6.3940,-0.089556
6.3960,-0.024309
6.3980,0.016152
6.4000,-0.019548
6.4020,-0.005049
6.4040,0.035664
6.4060,0.012123
6.4080,-0.014427
6.4100,0.018176
6.4120,-0.024136
6.4140,0.008061
6.4160,-0.002695
6.4180,-0.006898
6.4200,0.014743
6.4220,-0.020795
6.4240,-0.033797
6.4260,-0.008752
6.4280,0.032043
6.4300,0.055272
6.4320,0.062686
6.4340,0.120234
6.4360,0.102397
6.4380,0.139403
6.4400,0.138359
6.4420,0.192438
6.4440,0.221902
6.4460,0.238428
6.4480,0.228970
6.4500,0.242477
6.4520,0.256444
6.4540,0.287672
6.4560,0.276959
6.4580,0.285127
6.4600,0.293755
6.4620,0.297578
6.4640,0.285054
6.4660,0.251106
6.4680,0.258620
6.4700,0.248890
6.4720,0.205911
6.4740,0.216395
6.4760,0.194875
6.4780,0.156659
6.4800,0.123463
6.4820,0.137038
6.4840,0.100151
6.4860,0.051302
6.4880,0.047548
6.4900,-0.018293
6.4920,0.028164
6.4940,-0.012618
6.4960,-0.013628
6.4980,0.015561
6.5000,0.017706
6.5020,-0.016267
6.5040,-0.008581
6.5060,-0.010171
6.5080,-0.020302
6.5100,0.002451
6.5120,-0.019214
6.5140,-0.024198
6.5160,-0.030915
6.5180,0.014011
6.5200,0.001251
6.5220,-0.027295
6.5240,-0.007551
6.5260,-0.025942
6.5280,-0.002010
6.5300,-0.037503
6.5320,-0.004868
6.5340,0.007384
6.5360,0.002710
6.5380,-0.025934
6.5400,-0.011995
6.5420,0.004872
6.5440,-0.009823
6.5460,-0.010545
6.5480,0.007220
6.5500,0.014869
6.5520,-0.014367
6.5540,0.031561
6.5560,-0.013799
6.5580,0.009200
6.5600,0.011151
6.5620,-0.005377
6.5640,0.004294
6.5660,-0.000458
6.5680,0.041315
6.5700,-0.008823
6.5720,-0.017704
6.5740,-0.022043
6.5760,-0.016809
6.5780,0.009433
6.5800,-0.014646
6.5820,0.041167
6.5840,-0.002448
6.5860,-0.017160
6.5880,-0.021949
6.5900,-0.034362
6.5920,0.016754
6.5940,-0.012036
6.5960,0.043213
6.5980,0.002414
6.6000,-0.021964
6.6020,-0.026728
6.6040,0.017176
6.6060,0.028080
6.6080,-0.031320
6.6100,0.019113
6.6120,0.013760
6.6140,0.020794
6.6160,0.034487
6.6180,-0.010915
6.6200,0.018716
6.6220,-0.001485
6.6240,-0.009134
6.6260,0.014088
6.6280,0.025479
6.6300,0.034275
6.6320,-0.020025
6.6340,-0.001453
6.6360,-0.003929
6.6380,-0.006598
6.6400,-0.014441
6.6420,0.006214
6.6440,-0.007904
6.6460,-0.014156
6.6480,-0.007471
6.6500,-0.020801
6.6520,0.000143
6.6540,-0.007532
6.6560,-0.021666
6.6580,0.021975
6.6600,0.012247
6.6620,-0.003183
6.6640,0.003811
6.6660,-0.017393
6.6680,-0.067259
6.6700,0.015903
6.6720,0.021532
6.6740,-0.024570
6.6760,-0.007373
6.6780,-0.009971
6.6800,0.052222
6.6820,0.023165
6.6840,0.049545
6.6860,-0.010989
6.6880,-0.015661
6.6900,0.018969
6.6920,0.000786
6.6940,-0.019128
6.6960,0.022588
6.6980,0.016601
6.7000,-0.010125
6.7020,0.004875
6.7040,-0.022678
6.7060,-0.044738
6.7080,-0.005983
6.7100,0.001361
6.7120,0.013084
6.7140,-0.018311
6.7160,-0.041733
6.7180,0.005305
6.7200,-0.012226
6.7220,0.006261
6.7240,-0.039725
6.7260,0.004120
6.7280,0.036763
6.7300,0.019899
6.7320,0.018187
6.7340,0.007185
6.7360,-0.026435
6.7380,-0.007141
6.7400,0.008051
6.7420,-0.030117
6.7440,0.000625
6.7460,-0.008558
6.7480,0.011184
6.7500,0.011122
6.7520,-0.000351
6.7540,-0.016669
6.7560,0.001758
6.7580,-0.001736
6.7600,-0.010131
6.7620,-0.029529
6.7640,-0.008001
6.7660,-0.030186
6.7680,0.016662
6.7700,-0.018808
6.7720,0.010676
6.7740,-0.006118
6.7760,-0.015799
6.7780,0.010292
6.7800,0.026485
6.7820,-0.025690
6.7840,-0.004164
6.7860,0.021455
6.7880,-0.023773
6.7900,0.011693
6.7920,-0.037250
6.7940,0.023542
6.7960,-0.016625
6.7980,0.004437
6.8000,0.016772
6.8020,-0.052258
6.8040,0.016508
6.8060,0.004898
6.8080,0.027914
6.8100,0.001216
6.8120,-0.004946
6.8140,0.010394
6.8160,-0.035975
6.8180,0.012900
6.8200,-0.008820
6.8220,0.018616
6.8240,0.013979
6.8260,-0.006670
6.8280,0.016325
6.8300,0.030082
6.8320,-0.015521
6.8340,-0.014887
6.8360,0.007968
6.8380,-0.001347
6.8400,-0.022709
6.8420,-0.024625
6.8440,0.016858
6.8460,0.032235
6.8480,-0.002494
6.8500,0.016915
6.8520,0.004757
6.8540,0.016556
6.8560,0.001598
6.8580,-0.013915
6.8600,-0.005612
6.8620,0.015771
6.8640,0.016605
6.8660,-0.004509
6.8680,-0.004776
6.8700,0.009302
6.8720,0.002863
6.8740,-0.009151
6.8760,-0.006908
6.8780,0.005494
6.8800,-0.022470
6.8820,-0.013196
6.8840,-0.036251
6.8860,-0.019634
6.8880,0.001373
6.8900,-0.009966
6.8920,-0.000704
6.8940,-0.019474
6.8960,0.012445
6.8980,-0.026539
6.9000,-0.031221
6.9020,0.014167
6.9040,-0.003649
6.9060,-0.003806
6.9080,-0.026742
6.9100,0.024610
6.9120,-0.008432
6.9140,0.010787
6.9160,0.028586
6.9180,0.012015
6.9200,0.007016
6.9220,0.009175
6.9240,0.014458
6.9260,-0.004851
6.9280,-0.000853
6.9300,-0.013105
6.9320,0.003798
6.9340,0.018839
6.9360,-0.027365
6.9380,-0.005349
6.9400,0.015358
6.9420,0.013272
6.9440,0.038923
6.9460,0.005860
6.9480,0.032455
6.9500,0.008224
6.9520,0.007715
6.9540,0.042796
6.9560,-0.000507
6.9580,0.017055
6.9600,0.024305
6.9620,-0.003827
6.9640,0.015419
6.9660,0.061864
6.9680,0.062157
6.9700,0.081862
6.9720,0.035735
6.9740,0.113076
6.9760,0.096858
6.9780,0.136977
6.9800,0.185243
6.9820,0.152910
6.9840,0.138934
6.9860,0.165550
6.9880,0.131354
6.9900,0.102318
6.9920,0.120412
6.9940,0.059789
6.9960,0.077220
6.9980,0.075073
7.0000,0.066993
7.0020,0.005159
7.0040,-0.027280
7.0060,0.020272
7.0080,-0.006870
7.0100,0.004052
7.0120,0.020439
7.0140,-0.020363
7.0160,-0.037238
7.0180,-0.066972
7.0200,-0.135708
7.0220,-0.172913
7.0240,1.207221
7.0260,-0.290774
7.0280,-0.178613
7.0300,-0.055562
7.0320,-0.026109
7.0340,0.001828
7.0360,0.005602
7.0380,0.007491
7.0400,0.010718
7.0420,0.003026
7.0440,-0.016039
7.0460,0.012045
7.0480,0.019115
7.0500,-0.026113
7.0520,-0.006482
7.0540,0.003798
7.0560,0.030438
7.0580,0.017085
7.0600,-0.036717
7.0620,-0.026315
7.0640,0.032255
7.0660,0.086551
7.0680,0.058648
7.0700,0.104851
7.0720,0.098199
7.0740,0.143862
7.0760,0.172904
7.0780,0.153241
7.0800,0.215445
7.0820,0.190907
7.0840,0.238868
7.0860,0.252416
7.0880,0.266075
7.0900,0.303303
7.0920,0.267472
7.0940,0.280501
7.0960,0.313549
7.0980,0.290953
7.1000,0.300495
7.1020,0.266629
7.1040,0.247937
7.1060,0.223145
7.1080,0.175734
7.1100,0.172694
7.1120,0.153066
7.1140,0.106204
7.1160,0.113563
7.1180,0.101342
7.1200,0.050201
7.1220,0.079370
7.1240,-0.010447
7.1260,0.041178
7.1280,0.028112
7.1300,0.013850
7.1320,-0.031562
7.1340,-0.018920
7.1360,-0.000671
7.1380,-0.033950
7.1400,0.021657
7.1420,-0.011915
7.1440,-0.027942
7.1460,-0.019338
7.1480,0.005031
7.1500,0.024365
7.1520,0.003247
7.1540,0.014581
7.1560,-0.005792
7.1580,-0.020629
7.1600,-0.012722
7.1620,-0.016655
7.1640,-0.044491
7.1660,0.018108
7.1680,0.011508
7.1700,-0.014991
7.1720,0.002143
7.1740,0.018511
7.1760,-0.001865
7.1780,-0.032956
7.1800,-0.001176
7.1820,-0.006418
7.1840,0.007796
7.1860,-0.000134
7.1880,0.029389
7.1900,0.028851
7.1920,0.010676
7.1940,-0.006039
7.1960,-0.020644
7.1980,-0.015791
7.2000,0.027040
7.2020,0.023083
7.2040,0.028844
7.2060,0.006820
7.2080,0.009049
7.2100,0.025500
7.2120,-0.008931
7.2140,0.029402
7.2160,-0.047124
7.2180,-0.043886
7.2200,0.010254
7.2220,-0.007701
7.2240,0.002002
7.2260,0.052565
7.2280,0.004881
7.2300,-0.014796
7.2320,-0.015176
7.2340,0.000613
7.2360,0.003762
7.2380,0.006178
7.2400,0.024983
7.2420,-0.011646
7.2440,0.005554
7.2460,0.023689
7.2480,-0.036821
7.2500,-0.010242
7.2520,0.019899
7.2540,0.038331
7.2560,0.014466
7.2580,0.000441
7.2600,0.003842
7.2620,-0.015026
7.2640,-0.016135
7.2660,-0.013220
7.2680,0.031031
7.2700,0.007019
7.2720,0.014485
7.2740,0.008865
7.2760,-0.011015
7.2780,0.011963
7.2800,0.006625
7.2820,0.017410
7.2840,0.014729
7.2860,0.006565
7.2880,0.000279
7.2900,-0.005223
7.2920,0.003854
7.2940,-0.018111
7.2960,0.000397
7.2980,-0.000248
7.3000,-0.017529
7.3020,-0.009712
7.3040,-0.000623
7.3060,-0.008263
7.3080,0.000104
7.3100,-0.011324
7.3120,-0.028653
7.3140,-0.015210
7.3160,-0.011572
7.3180,-0.008238
7.3200,-0.008991
7.3220,-0.024454
7.3240,0.017535
7.3260,0.004289
7.3280,0.016294
7.3300,-0.000393
7.3320,-0.009718
7.3340,-0.002449
7.3360,-0.026833
7.3380,-0.027422
7.3400,-0.007612
7.3420,0.012885
7.3440,-0.036442
7.3460,0.025700
7.3480,-0.010991
7.3500,-0.008506
7.3520,-0.036079
7.3540,0.003993
7.3560,0.007272
7.3580,0.002552
7.3600,0.030966
7.3620,0.011087
7.3640,0.001276
7.3660,-0.009126
7.3680,0.000885
7.3700,0.014577
7.3720,-0.017894
7.3740,0.012926
7.3760,0.020765
7.3780,-0.011649
7.3800,-0.017520
7.3820,0.006901
7.3840,-0.018209
7.3860,-0.029609
7.3880,0.008852
7.3900,-0.040210
7.3920,0.043649
7.3940,-0.000309
7.3960,-0.005761
7.3980,0.003361
7.4000,-0.004016
7.4020,0.002022
7.4040,-0.008172
7.4060,-0.042018
7.4080,-0.019768
7.4100,-0.008458
7.4120,-0.025757
7.4140,-0.009341
7.4160,0.051105
7.4180,-0.024808
7.4200,0.020022
7.4220,-0.021856
7.4240,0.034195
7.4260,-0.010722
7.4280,0.001323
7.4300,0.000456
7.4320,0.008969
7.4340,-0.015800
7.4360,0.027970
7.4380,-0.030341
7.4400,-0.039355
7.4420,-0.003798
7.4440,0.012522
7.4460,0.012769
7.4480,0.036848
7.4500,-0.015687
7.4520,0.014307
7.4540,0.022385
7.4560,-0.009953
7.4580,-0.029316
7.4600,-0.001548
7.4620,-0.002136
7.4640,-0.015599
7.4660,0.016751
7.4680,-0.020824
7.4700,-0.044741
7.4720,0.043661
7.4740,-0.002739
7.4760,-0.034969
7.4780,0.005543
7.4800,-0.014349
7.4820,0.012099
7.4840,-0.007409
7.4860,-0.017508
7.4880,0.012050
7.4900,-0.027319
7.4920,0.008065
7.4940,0.009285
7.4960,0.002599
7.4980,-0.020103
7.5000,0.009436
7.5020,0.007230
7.5040,0.011714
7.5060,-0.000674
7.5080,-0.006044
7.5100,-0.006039
7.5120,-0.045292
7.5140,-0.018954
7.5160,-0.011187
7.5180,-0.016275
7.5200,-0.014286
7.5220,0.010195
7.5240,0.007800
7.5260,0.033221
7.5280,-0.002439
7.5300,0.005644
7.5320,0.045530
7.5340,0.031939
7.5360,-0.021062
7.5380,-0.003230
7.5400,0.016809
7.5420,-0.001492
7.5440,-0.016772
7.5460,-0.008540
7.5480,0.032418
7.5500,0.001522
7.5520,0.008899
7.5540,-0.016728
7.5560,-0.013661
7.5580,0.012948
7.5600,-0.040926
7.5620,0.037380
7.5640,-0.003329
7.5660,0.003670
7.5680,-0.013277
7.5700,-0.003273
7.5720,-0.008983
7.5740,0.033100
7.5760,-0.016150
7.5780,0.011341
7.5800,0.051281
7.5820,0.057622
7.5840,0.067381
7.5860,0.086997
7.5880,0.070048
7.5900,0.138131
7.5920,0.138524
7.5940,0.146282
7.5960,0.173841
7.5980,0.161212
7.6000,0.133040
7.6020,0.160999
7.6040,0.115651
7.6060,0.092344
7.6080,0.067496
7.6100,0.063742
7.6120,0.046007
7.6140,0.022613
7.6160,0.034914
7.6180,0.002464
7.6200,0.029082
7.6220,-0.019424
7.6240,0.006158
7.6260,0.021664
7.6280,-0.008224
7.6300,-0.013137
7.6320,-0.041680
7.6340,-0.131939
7.6360,-0.179033
7.6380,1.194212
7.6400,-0.282215
7.6420,-0.218444
7.6440,-0.117464
7.6460,-0.025235
7.6480,0.036429
7.6500,0.005086
7.6520,0.008078
7.6540,0.013577
7.6560,0.028043
7.6580,-0.006739
7.6600,-0.002056
7.6620,-0.002504
7.6640,-0.023655
7.6660,0.020760
7.6680,-0.003779
7.6700,-0.017752
7.6720,0.011706
7.6740,0.013392
7.6760,0.015261
7.6780,0.080632
7.6800,0.091062
7.6820,0.091685
7.6840,0.089623
7.6860,0.143672
7.6880,0.164310
7.6900,0.183643
7.6920,0.198912
7.6940,0.180771
7.6960,0.254226
7.6980,0.209421
7.7000,0.254941
7.7020,0.247261
7.7040,0.265521
7.7060,0.259325
7.7080,0.306263
7.7100,0.299298
7.7120,0.300208
7.7140,0.276260
7.7160,0.301410
7.7180,0.266490
7.7200,0.245274
7.7220,0.195516
7.7240,0.178896
7.7260,0.197849
7.7280,0.122336
7.7300,0.095408
7.7320,0.093167
7.7340,0.061323
7.7360,0.093252
7.7380,-0.004755
7.7400,-0.000511
7.7420,-0.000029
7.7440,-0.003932
7.7460,-0.024198
7.7480,-0.002961
7.7500,0.004705
7.7520,0.004188
7.7540,0.008824
7.7560,0.009889
7.7580,-0.000042
7.7600,0.020804
7.7620,-0.011156
7.7640,-0.024014
7.7660,0.013739
7.7680,-0.007953
7.7700,-0.016284
7.7720,-0.010514
7.7740,-0.027077
7.7760,0.002439
7.7780,0.008166
7.7800,0.020122
7.7820,-0.022468
7.7840,-0.004078
7.7860,0.006551
7.7880,-0.019264
7.7900,0.000861
7.7920,-0.034458
7.7940,-0.016954
7.7960,-0.019670
7.7980,-0.000839
7.8000,-0.011947
7.8020,-0.001162
7.8040,0.011332
7.8060,-0.017894
7.8080,0.003503
7.8100,-0.023052
7.8120,0.036621
7.8140,0.012048
7.8160,0.000754
7.8180,0.007074
7.8200,-0.021686
7.8220,0.028842
7.8240,0.020957
7.8260,0.009568
7.8280,-0.002662
7.8300,-0.002557
7.8320,0.003834
7.8340,-0.004012
7.8360,-0.043742
7.8380,-0.005650
7.8400,0.018446
7.8420,0.003447
7.8440,-0.005741
7.8460,-0.005561
7.8480,0.046587
7.8500,-0.019368
7.8520,0.044369
7.8540,0.013519
7.8560,0.009633
7.8580,-0.018540
7.8600,-0.001273
7.8620,-0.009343
7.8640,-0.018936
7.8660,-0.023568
7.8680,-0.041079
7.8700,0.007451
7.8720,0.016437
7.8740,-0.021440
7.8760,-0.038409
7.8780,-0.000587
7.8800,-0.023277
7.8820,-0.015372
7.8840,-0.004015
7.8860,0.029149
7.8880,0.032580
7.8900,-0.027104
7.8920,-0.028307
7.8940,-0.036098
7.8960,-0.012199
7.8980,0.006431
7.9000,0.051069
7.9020,-0.017739
7.9040,0.007381
7.9060,0.036150
7.9080,0.005879
7.9100,-0.010492
7.9120,-0.007360
7.9140,0.000791
7.9160,0.021120
7.9180,0.022427
7.9200,-0.006560
7.9220,0.000326
7.9240,0.017287
7.9260,0.020653
7.9280,-0.041678
7.9300,-0.008061
7.9320,-0.002517
7.9340,0.005475
7.9360,0.020568
7.9380,0.029180
7.9400,-0.006291
7.9420,-0.030204
7.9440,0.020892
7.9460,-0.030472
7.9480,-0.013021
7.9500,0.043783
7.9520,-0.002424
7.9540,-0.008976
7.9560,-0.000319
7.9580,-0.006229
7.9600,0.023983
7.9620,-0.001365
7.9640,-0.000685
7.9660,-0.001482
7.9680,-0.008931
7.9700,-0.008817
7.9720,-0.018895
7.9740,0.008091
7.9760,0.017111
7.9780,-0.028499
7.9800,-0.008831
7.9820,-0.011729
7.9840,0.000759
7.9860,-0.028915
7.9880,0.006784
7.9900,-0.003282
7.9920,0.006035
7.9940,-0.000891
7.9960,-0.005697
7.9980,0.021535
8.0000,0.024864
8.0020,-0.023254
8.0040,-0.000149
8.0060,-0.022156
8.0080,0.028556
8.0100,-0.011585
8.0120,0.023818
8.0140,-0.020550
8.0160,-0.008544
8.0180,-0.009539
8.0200,-0.024484
8.0220,0.012419
8.0240,-0.002543
8.0260,-0.050781
8.0280,0.023318
8.0300,0.024184
8.0320,0.009456
8.0340,0.016739
8.0360,0.015333
8.0380,-0.009251
8.0400,-0.003931
8.0420,-0.017569
8.0440,0.022863
8.0460,-0.016660
8.0480,0.013219
8.0500,0.002748
8.0520,0.004549
8.0540,0.005389
8.0560,0.009056
8.0580,0.008395
8.0600,-0.003173
8.0620,-0.003747
8.0640,-0.007934
8.0660,0.006901
8.0680,-0.007764
8.0700,-0.005852
8.0720,0.001961
8.0740,0.011669
8.0760,-0.018794
8.0780,-0.024538
8.0800,-0.018415
8.0820,0.004874
8.0840,-0.035669
8.0860,0.017535
8.0880,0.014484
8.0900,-0.020328
8.0920,0.011344
8.0940,-0.023122
8.0960,0.024927
8.0980,0.018464
8.1000,-0.008013
8.1020,0.018427
8.1040,0.014687
8.1060,-0.002123
8.1080,0.013969
8.1100,0.015845
8.1120,0.002053
8.1140,-0.039426
8.1160,0.027742
8.1180,-0.013388
8.1200,-0.014996
8.1220,-0.008322
8.1240,-0.016138
8.1260,-0.026281
8.1280,-0.019266
8.1300,0.019710
8.1320,0.036871
8.1340,-0.010232
8.1360,-0.003719
8.1380,-0.019453
8.1400,0.019705
8.1420,-0.011478
8.1440,-0.003054
8.1460,-0.001267
8.1480,-0.039451
8.1500,0.002617
8.1520,-0.024617
8.1540,-0.008542
8.1560,0.011163
8.1580,-0.004307
8.1600,0.015335
8.1620,0.013614
8.1640,0.015944
8.1660,0.019627
8.1680,-0.040857
8.1700,-0.016730
8.1720,-0.005602
8.1740,-0.017471
8.1760,-0.004301
8.1780,-0.017288
8.1800,0.004540
8.1820,-0.012659
8.1840,0.000101
8.1860,-0.043205
8.1880,-0.033177
8.1900,0.011642
8.1920,-0.016562
8.1940,0.036103
8.1960,-0.013896
8.1980,0.013278
8.2000,-0.063856
8.2020,0.002387
8.2040,0.015729
8.2060,0.016327
8.2080,-0.034202
8.2100,-0.006610
8.2120,0.016092
8.2140,0.002982
8.2160,0.005020
8.2180,0.051587
8.2200,0.064519
8.2220,0.058951
8.2240,0.065331
8.2260,0.061452
8.2280,0.098314
8.2300,0.104989
8.2320,0.112523
8.2340,0.112149
8.2360,0.135160
8.2380,0.165612
8.2400,0.140797
8.2420,0.157842
8.2440,0.115757
8.2460,0.111926
8.2480,0.081869
8.2500,0.066580
8.2520,0.032579
8.2540,0.027566
8.2560,0.008735
8.2580,0.017831
8.2600,-0.009723
8.2620,-0.019819
8.2640,0.031598
8.2660,0.002921
8.2680,-0.017599
8.2700,-0.063358
8.2720,-0.113351
8.2740,-0.140577
8.2760,1.219960
8.2780,-0.290914
8.2800,-0.194861
8.2820,-0.095743
8.2840,-0.048774
8.2860,-0.052328
8.2880,-0.046058
8.2900,0.032770
8.2920,-0.004957
8.2940,0.009313
8.2960,0.025752
8.2980,-0.021690
8.3000,0.015445
8.3020,-0.009254
8.3040,0.001493
8.3060,0.009605
8.3080,0.006861
8.3100,0.007697
8.3120,-0.041124
8.3140,-0.017840
8.3160,0.041699
8.3180,0.089295
8.3200,0.110540
8.3220,0.092513
8.3240,0.086039
8.3260,0.152235
8.3280,0.133193
8.3300,0.193306
8.3320,0.168821
8.3340,0.204146
8.3360,0.265404
8.3380,0.262274
8.3400,0.253102
8.3420,0.295593
8.3440,0.283983
8.3460,0.289638
8.3480,0.309890
8.3500,0.256562
8.3520,0.275744
8.3540,0.275131
8.3560,0.234476
8.3580,0.226689
8.3600,0.179731
8.3620,0.153170
8.3640,0.163654
8.3660,0.141589
8.3680,0.112796
8.3700,0.096065
8.3720,0.076570
8.3740,0.036076
8.3760,-0.023088
8.3780,-0.011981
8.3800,-0.028735
8.3820,-0.006474
8.3840,-0.010403
8.3860,0.051545
8.3880,-0.013112
8.3900,0.010168
8.3920,-0.006806
8.3940,-0.000656
8.3960,-0.014017
8.3980,-0.002168
8.4000,0.023251
8.4020,-0.036124
8.4040,0.011478
8.4060,0.024351
8.4080,-0.021722
8.4100,0.017900
8.4120,0.043737
8.4140,-0.019450
8.4160,-0.001755
8.4180,0.002618
8.4200,0.008870
8.4220,0.021016
8.4240,-0.000791
8.4260,0.041524
8.4280,-0.006951
8.4300,0.004776
8.4320,0.021770
8.4340,0.017432
8.4360,-0.025404
8.4380,-0.007476
8.4400,-0.002442
8.4420,-0.004646
8.4440,-0.017160
8.4460,-0.035409
8.4480,0.008489
8.4500,0.010694
8.4520,0.048735
8.4540,-0.008296
8.4560,0.010822
8.4580,0.038042
8.4600,-0.012593
8.4620,-0.026323
8.4640,-0.009218
8.4660,-0.028563
8.4680,0.025373
8.4700,-0.012341
8.4720,0.027833
8.4740,0.042868
8.4760,-0.016728
8.4780,-0.024841
8.4800,-0.005780
8.4820,-0.004605
8.4840,0.037138
8.4860,0.012951
8.4880,-0.019997
8.4900,0.014427
8.4920,-0.024130
8.4940,-0.016705
8.4960,0.025824
8.4980,-0.006064
8.5000,-0.034016
8.5020,0.007569
8.5040,0.010246
8.5060,0.020572
8.5080,-0.002365
8.5100,0.021212
8.5120,0.008612
8.5140,0.001559
8.5160,-0.018030
8.5180,0.018720
8.5200,-0.023953
8.5220,-0.006680
8.5240,-0.003943
8.5260,0.008893
8.5280,-0.023793
8.5300,0.023842
8.5320,-0.019977
8.5340,0.000860
8.5360,0.005509
8.5380,-0.004988
8.5400,0.016980
8.5420,0.029830
8.5440,0.011201
8.5460,-0.044577
8.5480,0.017051
8.5500,-0.010235
8.5520,-0.002207
8.5540,-0.008483
8.5560,-0.029470
8.5580,-0.024672
8.5600,-0.011949
8.5620,0.025964
8.5640,0.024119
8.5660,-0.012687
8.5680,0.008281
8.5700,-0.014471
8.5720,-0.025233
8.5740,0.030174
8.5760,-0.009547
8.5780,0.026553
8.5800,-0.003915
8.5820,-0.017223
8.5840,-0.046880
8.5860,-0.028103
8.5880,-0.046964
8.5900,-0.019402
8.5920,-0.002285
8.5940,-0.006198
8.5960,0.010849
8.5980,0.011846
8.6000,-0.026030
8.6020,-0.026232
8.6040,-0.004354
8.6060,0.004428
8.6080,0.003281
8.6100,0.040382
8.6120,-0.025001
8.6140,-0.006244
8.6160,-0.045523
8.6180,0.014699
8.6200,0.012062
8.6220,-0.015892
8.6240,0.022675
8.6260,-0.004238
8.6280,0.035845
8.6300,0.009574
8.6320,-0.014959
8.6340,0.011818
8.6360,0.001500
8.6380,-0.040406
8.6400,-0.000259
8.6420,-0.002393
8.6440,-0.008227
8.6460,0.034603
8.6480,0.026694
8.6500,-0.017129
8.6520,-0.000811
8.6540,-0.003641
8.6560,-0.003765
8.6580,0.037733
8.6600,-0.008445
8.6620,0.013088
8.6640,0.011477
8.6660,-0.017209
8.6680,0.017639
8.6700,0.013374
8.6720,0.021999
8.6740,0.037521
8.6760,0.006589
8.6780,0.012538
8.6800,0.007390
8.6820,0.004356
8.6840,-0.021564
8.6860,0.014623
8.6880,-0.007170
8.6900,0.021956
8.6920,-0.013752
8.6940,0.006289
8.6960,0.004445
8.6980,0.001366
8.7000,0.031225
8.7020,-0.036822
8.7040,-0.029619
8.7060,0.013952
8.7080,-0.002625
8.7100,-0.020701
8.7120,0.014627
8.7140,0.003431
8.7160,-0.020457
8.7180,0.021335
8.7200,-0.010600
8.7220,0.011427
8.7240,-0.037196
8.7260,0.030606
8.7280,-0.000754
8.7300,-0.026519
8.7320,0.008582
8.7340,0.021478
8.7360,-0.016564
8.7380,0.009441
8.7400,-0.004658
8.7420,-0.000496
8.7440,-0.005586
8.7460,0.029541
8.7480,-0.036053
8.7500,0.028269
8.7520,0.031580
8.7540,-0.023446
8.7560,0.019863
8.7580,-0.005562
8.7600,-0.008831
8.7620,-0.036498
8.7640,0.014565
8.7660,0.018903
8.7680,-0.003239
8.7700,-0.008590
8.7720,-0.002804
8.7740,0.020507
8.7760,-0.027440
8.7780,0.007032
8.7800,0.056938
8.7820,0.003622
8.7840,0.003853
8.7860,-0.036222
8.7880,0.028119
8.7900,-0.003512
8.7920,0.016212
8.7940,-0.001314
8.7960,0.006222
8.7980,-0.014610
8.8000,-0.002308
8.8020,-0.004729
8.8040,-0.010384
8.8060,-0.018744
8.8080,-0.000725
8.8100,0.017628
8.8120,-0.017123
8.8140,-0.008057
8.8160,-0.012423
8.8180,-0.020729
8.8200,-0.001365
8.8220,0.010658
8.8240,0.018846
8.8260,0.026254
8.8280,-0.014291
8.8300,-0.014278
8.8320,-0.025680
8.8340,-0.035917
8.8360,0.025325
8.8380,0.024425
8.8400,0.002562
8.8420,-0.024709
8.8440,0.052304
8.8460,-0.033115
8.8480,0.004068
8.8500,0.044580
8.8520,-0.000428
8.8540,0.011981
8.8560,-0.002921
8.8580,-0.018665
8.8600,0.027319
8.8620,-0.020807
8.8640,0.010754
8.8660,-0.015778
8.8680,0.008453
8.8700,-0.011057
8.8720,-0.021353
8.8740,0.010097
8.8760,0.017844
8.8780,-0.038249
8.8800,0.001866
8.8820,0.032457
8.8840,-0.063150
8.8860,-0.019224
8.8880,-0.005937
8.8900,0.020449
8.8920,0.004623
8.8940,-0.016491
8.8960,-0.013777
8.8980,-0.021512
8.9000,-0.014612
8.9020,0.005006
8.9040,0.023846
8.9060,0.054978
8.9080,0.047926
8.9100,0.083055
8.9120,0.002980
8.9140,0.111831
8.9160,0.099400
8.9180,0.105150
8.9200,0.157640
8.9220,0.117989
8.9240,0.122755
8.9260,0.127639
8.9280,0.087379
8.9300,0.143856
8.9320,0.111445
8.9340,0.081987
8.9360,0.070170
8.9380,0.054642
8.9400,0.031504
8.9420,0.029460
8.9440,-0.024690
8.9460,-0.036357
8.9480,-0.010383
8.9500,-0.023469
8.9520,0.011628
8.9540,-0.021273
8.9560,-0.007073
8.9580,-0.057379
8.9600,-0.083714
8.9620,-0.204313
8.9640,1.184878
8.9660,-0.272514
8.9680,-0.187944
8.9700,-0.123207
8.9720,-0.007702
8.9740,-0.019396
8.9760,0.022519
8.9780,0.004914
8.9800,0.009066
8.9820,0.001685
8.9840,-0.034347
8.9860,0.032779
8.9880,0.027270
8.9900,0.032317
8.9920,0.006217
8.9940,0.022582
8.9960,0.043676
8.9980,-0.024399
9.0000,0.018551
9.0020,-0.001450
9.0040,0.052851
9.0060,0.035493
9.0080,0.065882
9.0100,0.124441
9.0120,0.090973
9.0140,0.132389
9.0160,0.145932
9.0180,0.193351
9.0200,0.190474
9.0220,0.258677
9.0240,0.269717
9.0260,0.262477
9.0280,0.274594
9.0300,0.290362
9.0320,0.287925
9.0340,0.301169
9.0360,0.263486
9.0380,0.290146
9.0400,0.281584
9.0420,0.236334
9.0440,0.229181
9.0460,0.229094
9.0480,0.185922
9.0500,0.203980
9.0520,0.160680
9.0540,0.157041
9.0560,0.136381
9.0580,0.070801
9.0600,0.061594
9.0620,0.058686
9.0640,0.008146
9.0660,-0.034400
9.0680,0.020333
9.0700,-0.009943
9.0720,0.015861
9.0740,-0.052435
9.0760,0.003001
9.0780,-0.004546
9.0800,0.033595
9.0820,-0.012135
9.0840,0.024746
9.0860,0.028440
9.0880,-0.011330
9.0900,-0.028157
9.0920,-0.016682
9.0940,-0.002300
9.0960,-0.010527
9.0980,0.010276
9.1000,0.057279
9.1020,0.029788
9.1040,0.001390
9.1060,-0.034109
9.1080,-0.016118
9.1100,0.001846
9.1120,0.030989
9.1140,-0.015296
9.1160,0.016249
9.1180,-0.001344
9.1200,0.007026
9.1220,-0.001347
9.1240,0.005829
9.1260,-0.039616
9.1280,0.010662
9.1300,0.007304
9.1320,-0.004923
9.1340,0.012774
9.1360,-0.000212
9.1380,0.006056
9.1400,0.022609
9.1420,0.004010
9.1440,-0.023201
9.1460,-0.019456
9.1480,-0.013069
9.1500,-0.028218
9.1520,0.044916
9.1540,0.015448
9.1560,-0.014951
9.1580,-0.026366
9.1600,-0.022546
9.1620,-0.014807
9.1640,0.016974
9.1660,-0.061143
9.1680,0.004295
9.1700,0.011951
9.1720,0.012733
9.1740,0.024120
9.1760,0.013616
9.1780,-0.010957
9.1800,-0.002780
9.1820,-0.004732
9.1840,-0.032930
9.1860,0.004709
9.1880,-0.006344
9.1900,0.007031
9.1920,0.017186
9.1940,0.013435
9.1960,0.000286
9.1980,0.045457
9.2000,0.004546
9.2020,0.043076
9.2040,0.009106
9.2060,0.012111
9.2080,-0.028820
9.2100,0.000023
9.2120,0.042886
9.2140,0.000680
9.2160,-0.006766
9.2180,0.014703
9.2200,-0.015763
9.2220,-0.017514
9.2240,-0.013233
9.2260,-0.006662
9.2280,0.007253
9.2300,0.002347
9.2320,-0.018086
9.2340,-0.005126
9.2360,0.020997
9.2380,-0.008165
9.2400,-0.037904
9.2420,-0.007954
9.2440,-0.000475
9.2460,-0.009566
9.2480,-0.010238
9.2500,-0.017350
9.2520,0.004350
9.2540,0.015659
9.2560,-0.005022
9.2580,-0.035791
9.2600,0.008037
9.2620,-0.013155
9.2640,-0.017523
9.2660,-0.010344
9.2680,0.013900
9.2700,-0.010037
9.2720,0.027203
9.2740,-0.025065
9.2760,-0.017429
9.2780,-0.062771
9.2800,0.015412
9.2820,0.032335
9.2840,-0.035347
9.2860,-0.022765
9.2880,0.001431
9.2900,-0.024246
9.2920,-0.004290
9.2940,-0.014416
9.2960,0.016358
9.2980,0.025573
9.3000,0.005282
9.3020,0.001307
9.3040,0.030821
9.3060,-0.006153
9.3080,-0.014036
9.3100,-0.008788
9.3120,-0.027220
9.3140,-0.031670
9.3160,0.002300
9.3180,0.021416
9.3200,-0.013804
9.3220,0.009725
9.3240,0.005244
9.3260,0.006299
9.3280,0.029262
9.3300,0.001459
9.3320,0.028254
9.3340,-0.018769
9.3360,-0.018745
9.3380,0.013173
9.3400,0.014874
9.3420,-0.013559
9.3440,0.030644
9.3460,0.003291
9.3480,-0.003405
9.3500,-0.013563
9.3520,-0.032775
9.3540,-0.056471
9.3560,0.039043
9.3580,0.012962
9.3600,0.032505
9.3620,0.020865
9.3640,-0.005155
9.3660,-0.000950
9.3680,0.022717
9.3700,-0.002226
9.3720,0.002303
9.3740,0.020490
9.3760,-0.025142
9.3780,-0.025102
9.3800,0.020860
9.3820,-0.001567
9.3840,-0.013609
9.3860,0.017700
9.3880,-0.000309
9.3900,-0.009847
9.3920,0.013630
9.3940,0.048004
9.3960,-0.021963
9.3980,-0.002737
9.4000,0.014764
9.4020,0.028390
9.4040,0.003642
9.4060,0.006817
9.4080,0.024130
9.4100,0.012898
9.4120,-0.000082
9.4140,0.008198
9.4160,-0.022445
9.4180,-0.010162
9.4200,-0.006611
9.4220,-0.037872
9.4240,0.001404
9.4260,-0.003581
9.4280,-0.025021
9.4300,0.028779
9.4320,0.030835
9.4340,0.024795
9.4360,-0.048743
9.4380,0.001650
9.4400,0.006026
9.4420,0.011624
9.4440,0.022954
9.4460,-0.000938
9.4480,0.026705
9.4500,0.028317
9.4520,0.003396
9.4540,-0.018176
9.4560,0.015880
9.4580,0.024450
9.4600,-0.007502
9.4620,0.005012
9.4640,-0.002460
9.4660,-0.007614
9.4680,-0.017470
9.4700,-0.017461
9.4720,0.007526
9.4740,0.010674
9.4760,-0.014082
9.4780,0.001893
9.4800,0.003792
9.4820,-0.007985
9.4840,-0.014846
9.4860,-0.005307
9.4880,0.003012
9.4900,-0.026270
9.4920,-0.012669
9.4940,-0.017626
9.4960,0.010870
9.4980,-0.000329
9.5000,0.025999
9.5020,0.004378
9.5040,-0.006038
9.5060,-0.007297
9.5080,0.001407
9.5100,-0.022010
9.5120,-0.006661
9.5140,0.001381
9.5160,0.001240
9.5180,-0.035199
9.5200,0.010079
9.5220,0.012075
9.5240,0.017391
9.5260,-0.009866
9.5280,0.021548
9.5300,0.004131
9.5320,-0.030881
9.5340,-0.012295
9.5360,-0.030193
9.5380,0.022500
9.5400,-0.010811
9.5420,0.011340
9.5440,-0.029298
9.5460,-0.005918
9.5480,0.011203
9.5500,-0.009948
9.5520,0.030365
9.5540,0.000152
9.5560,-0.031097
9.5580,0.007908
9.5600,0.017840
9.5620,-0.007745
9.5640,0.007914
9.5660,-0.002112
9.5680,-0.013610
9.5700,0.005893
9.5720,-0.014134
9.5740,0.004059
9.5760,-0.003902
9.5780,-0.004789
9.5800,0.028031
9.5820,0.019003
9.5840,0.008736
9.5860,-0.015313
9.5880,0.026081
9.5900,0.012875
9.5920,-0.005717
9.5940,0.017804
9.5960,-0.024961
9.5980,-0.015565
9.6000,0.006246
9.6020,0.000647
9.6040,0.005212
9.6060,-0.015758
9.6080,0.007379
9.6100,-0.031316
9.6120,0.001078
9.6140,-0.016306
9.6160,-0.013515
9.6180,0.031002
9.6200,-0.012859
9.6220,-0.004875
9.6240,0.001089
9.6260,0.035439
9.6280,0.049008
9.6300,0.046183
9.6320,0.055569
9.6340,0.101696
9.6360,0.102635
9.6380,0.113616
9.6400,0.181450
9.6420,0.118423
9.6440,0.139415
9.6460,0.148642
9.6480,0.145115
9.6500,0.139510
9.6520,0.116260
9.6540,0.054086
9.6560,0.080681
9.6580,0.005872
9.6600,0.041962
9.6620,0.025723
9.6640,0.023712
9.6660,0.020568
9.6680,0.009750
9.6700,-0.002647
9.6720,0.012954
9.6740,-0.027753
9.6760,-0.024705
9.6780,-0.048107
9.6800,-0.102731
9.6820,-0.214248
9.6840,1.234731
9.6860,-0.289302
9.6880,-0.204731
9.6900,-0.113095
9.6920,-0.058209
9.6940,0.008966
9.6960,0.012962
9.6980,-0.030148
9.7000,-0.011216
9.7020,0.003921
9.7040,0.005342
9.7060,0.002835
9.7080,-0.014632
9.7100,0.018610
9.7120,0.017070
9.7140,0.017275
9.7160,0.031665
9.7180,-0.000477
9.7200,-0.001632
9.7220,0.005690
9.7240,0.011654
9.7260,0.095967
9.7280,0.069842
9.7300,0.107271
9.7320,0.140708
9.7340,0.128644
9.7360,0.129170
9.7380,0.170266
9.7400,0.229889
9.7420,0.211309
9.7440,0.255878
9.7460,0.280537
9.7480,0.307949
9.7500,0.299162
9.7520,0.298637
9.7540,0.338161
9.7560,0.300637
9.7580,0.284914
9.7600,0.300359
9.7620,0.297737
9.7640,0.280812
9.7660,0.273794
9.7680,0.211093
9.7700,0.184046
9.7720,0.139309
9.7740,0.181701
9.7760,0.107250
9.7780,0.087596
9.7800,0.065066
9.7820,0.041287
9.7840,0.027652
9.7860,-0.014298
9.7880,-0.007001
9.7900,0.006562
9.7920,0.008785
9.7940,0.022725
9.7960,-0.013959
9.7980,0.032469
9.8000,-0.004221
9.8020,-0.002202
9.8040,-0.059935
9.8060,-0.044498
9.8080,0.012036
9.8100,0.022014
9.8120,-0.040330
9.8140,0.019013
9.8160,0.008001
9.8180,0.017550
9.8200,0.009617
9.8220,-0.025625
9.8240,0.019158
9.8260,-0.012352
9.8280,-0.013248
9.8300,-0.004357
9.8320,-0.014246
9.8340,-0.009820
9.8360,-0.011144
9.8380,0.000463
9.8400,-0.008780
9.8420,-0.001367
9.8440,-0.012402
9.8460,0.011277
9.8480,0.046939
9.8500,0.010247
9.8520,-0.018597
9.8540,0.020880
9.8560,0.020561
9.8580,-0.016604
9.8600,0.032643
9.8620,0.000662
9.8640,-0.038338
9.8660,0.004629
9.8680,-0.018414
9.8700,0.001150
9.8720,-0.021423
9.8740,-0.041483
9.8760,-0.017067
9.8780,-0.025466
9.8800,-0.001854
9.8820,-0.003095
9.8840,-0.032750
9.8860,-0.014432
9.8880,0.010556
9.8900,-0.026866
9.8920,0.006182
9.8940,0.026700
9.8960,-0.024849
9.8980,-0.005661
9.9000,0.020551
9.9020,-0.023152
9.9040,0.036511
9.9060,0.003282
9.9080,0.018145
9.9100,-0.017013
9.9120,-0.027592
9.9140,0.008373
9.9160,0.006881
9.9180,0.006745
9.9200,0.040265
9.9220,0.010343
9.9240,0.025471
9.9260,0.050833
9.9280,0.004359
9.9300,0.003589
9.9320,0.051648
9.9340,0.009199
9.9360,0.001006
9.9380,0.001872
9.9400,0.005419
9.9420,-0.003090
9.9440,-0.032048
9.9460,-0.027656
9.9480,0.010588
9.9500,-0.025236
9.9520,0.029236
9.9540,0.015933
9.9560,0.015318
9.9580,-0.017950
9.9600,0.019993
9.9620,-0.009518
9.9640,-0.028251
9.9660,0.002578
9.9680,-0.004300
9.9700,-0.008729
9.9720,0.004994
9.9740,-0.002962
9.9760,-0.009379
9.9780,-0.026110
9.9800,0.020579
9.9820,-0.016352
9.9840,0.002407
9.9860,0.017807
9.9880,0.015197
9.9900,-0.006314
9.9920,0.018692
9.9940,0.018768
9.9960,-0.014255
9.9980,0.012293
10.0000,0.005610
10.0020,-0.009021
10.0040,-0.023334
10.0060,0.006061
10.0080,-0.003032
10.0100,0.003054
10.0120,-0.051280
10.0140,-0.011857
10.0160,0.015079
10.0180,0.001253
10.0200,-0.014230
10.0220,0.009821
10.0240,-0.008661
10.0260,-0.003489
10.0280,0.004810
10.0300,-0.003984
10.0320,-0.021796
10.0340,0.014595
10.0360,-0.011410
10.0380,-0.008546
10.0400,0.001895
10.0420,-0.003493
10.0440,0.012411
10.0460,0.005479
10.0480,0.013807
10.0500,0.000289
10.0520,0.000907
10.0540,-0.028186
10.0560,-0.017622
10.0580,0.003904
10.0600,-0.010633
10.0620,-0.006477
10.0640,-0.012019
10.0660,0.006671
10.0680,-0.039519
10.0700,-0.026766
10.0720,0.020692
10.0740,-0.006992
10.0760,0.018114
10.0780,0.020245
10.0800,-0.002033
10.0820,0.003151
10.0840,-0.004026
10.0860,0.012534
10.0880,-0.009734
10.0900,0.000942
10.0920,0.027733
10.0940,0.006780
10.0960,0.027310
10.0980,0.060634
10.1000,0.044263
10.1020,0.093851
10.1040,0.100713
10.1060,0.132370
10.1080,0.137001
10.1100,0.176293
10.1120,0.127324
10.1140,0.138162
10.1160,0.123959
10.1180,0.113928
10.1200,0.083080
10.1220,0.076482
10.1240,0.087227
10.1260,0.030367
10.1280,0.003359
10.1300,0.034534
10.1320,0.009411
10.1340,-0.010021
10.1360,0.001093
10.1380,0.001762
10.1400,-0.021711
10.1420,-0.022653
10.1440,-0.045210
10.1460,-0.056080
10.1480,-0.116420
10.1500,-0.183482
10.1520,1.199727
10.1540,-0.274387
10.1560,-0.150253
10.1580,-0.134117
10.1600,-0.053583
10.1620,-0.025856
10.1640,0.028773
10.1660,0.007896
10.1680,0.033105
10.1700,-0.018729
10.1720,-0.043697
10.1740,-0.012211
10.1760,0.013847
10.1780,-0.018781
10.1800,0.011282
10.1820,-0.021007
10.1840,0.048666
10.1860,-0.010778
10.1880,0.007750
10.1900,-0.017525
10.1920,0.067805
10.1940,0.074278
10.1960,0.066739
10.1980,0.091259
10.2000,0.141621
10.2020,0.159045
10.2040,0.153003
10.2060,0.212258
10.2080,0.208238
10.2100,0.225557
10.2120,0.275583
10.2140,0.224405
10.2160,0.243579
10.2180,0.272416
10.2200,0.287632
10.2220,0.306085
10.2240,0.274692
10.2260,0.313506
10.2280,0.287916
10.2300,0.262640
10.2320,0.208183
10.2340,0.237544
10.2360,0.183185
10.2380,0.178980
10.2400,0.160573
10.2420,0.144109
10.2440,0.130900
10.2460,0.131417
10.2480,0.076639
10.2500,0.071182
10.2520,-0.013513
10.2540,-0.019693
10.2560,-0.006040
10.2580,0.027533
10.2600,-0.010215
10.2620,0.013341
10.2640,-0.011201
10.2660,-0.007269
10.2680,0.039002
10.2700,0.000362
10.2720,0.005353
10.2740,-0.003254
10.2760,0.002097
10.2780,-0.003895
10.2800,-0.011831
10.2820,0.026090
10.2840,-0.007891
10.2860,0.013485
10.2880,0.009873
10.2900,-0.019945
10.2920,-0.032167
10.2940,0.002723
10.2960,0.042735
10.2980,0.015609
10.3000,0.045361
10.3020,-0.020702
10.3040,-0.008150
10.3060,-0.002236
10.3080,0.019792
10.3100,0.000069
10.3120,-0.014979
10.3140,-0.011886
10.3160,0.034610
10.3180,0.008320
10.3200,0.020734
10.3220,0.024401
10.3240,-0.001284
10.3260,-0.002237
10.3280,-0.016356
10.3300,0.005586
10.3320,-0.000120
10.3340,-0.029352
10.3360,-0.027194
10.3380,0.019687
10.3400,-0.011924
10.3420,0.031905
10.3440,0.019709
10.3460,-0.027219
10.3480,-0.018626
10.3500,0.005676
10.3520,0.001259
10.3540,-0.016334
10.3560,0.000733
10.3580,-0.015627
10.3600,-0.027844
10.3620,0.010464
10.3640,-0.025236
10.3660,-0.007149
10.3680,0.022482
10.3700,-0.039935
10.3720,0.020347
10.3740,-0.025525
10.3760,0.008032
10.3780,-0.029784
10.3800,0.000596
10.3820,0.009262
10.3840,0.017231
10.3860,0.020831
10.3880,-0.029410
10.3900,0.004894
10.3920,0.029428
10.3940,-0.008411
10.3960,-0.006127
10.3980,-0.015641
10.4000,0.047796
10.4020,0.017044
10.4040,0.015483
10.4060,0.011761
10.4080,0.032486
10.4100,0.012464
10.4120,0.001757
10.4140,0.035348
10.4160,-0.022953
10.4180,0.002195
10.4200,0.004515
10.4220,0.010962
10.4240,-0.018532
10.4260,-0.013925
10.4280,0.026790
10.4300,0.013210
10.4320,-0.029132
10.4340,-0.025322
10.4360,-0.013275
10.4380,0.013989
10.4400,0.005554
10.4420,0.022677
10.4440,-0.012987
10.4460,0.040153
10.4480,0.018301
10.4500,-0.030344
10.4520,-0.009422
10.4540,0.014722
10.4560,0.017556
10.4580,-0.037557
10.4600,0.007157
10.4620,-0.022117
10.4640,-0.022152
10.4660,0.014492
10.4680,0.002184
10.4700,-0.008680
10.4720,0.014526
10.4740,-0.027228
10.4760,0.031108
10.4780,0.017653
10.4800,-0.000350
10.4820,0.015139
10.4840,-0.033628
10.4860,-0.002366
10.4880,-0.005839
10.4900,0.007301
10.4920,0.044531
10.4940,-0.002455
10.4960,0.015237
10.4980,0.020366
10.5000,0.009502
10.5020,0.013986
10.5040,-0.015725
10.5060,-0.014982
10.5080,-0.035466
10.5100,-0.034558
10.5120,-0.015014
10.5140,-0.010206
10.5160,0.013584
10.5180,-0.011886
10.5200,0.021389
10.5220,-0.004251
10.5240,-0.035221
10.5260,0.000693
10.5280,-0.013998
10.5300,0.037205
10.5320,-0.010883
10.5340,-0.003622
10.5360,0.000954
10.5380,0.006811
10.5400,0.019718
10.5420,-0.027051
10.5440,-0.036154
10.5460,0.034889
10.5480,0.001272
10.5500,-0.036984
10.5520,-0.001568
10.5540,-0.006910
10.5560,-0.020207
10.5580,0.011215
10.5600,0.038075
10.5620,0.010611
10.5640,-0.005100
10.5660,-0.024602
10.5680,0.008481
10.5700,0.007095
10.5720,-0.031620
10.5740,-0.013490
10.5760,-0.020370
10.5780,0.006223
10.5800,0.036519
10.5820,-0.017405
10.5840,-0.002413
10.5860,-0.000143
10.5880,0.012065
10.5900,0.013910
10.5920,-0.017894
10.5940,0.031450
10.5960,-0.024074
10.5980,0.007837
10.6000,-0.025859
10.6020,-0.000421
10.6040,0.015358
10.6060,0.005993
10.6080,0.020820
10.6100,0.008852
10.6120,-0.001756
10.6140,0.017902
10.6160,0.005489
10.6180,0.015644
10.6200,0.006034
10.6220,-0.007347
10.6240,0.010083
10.6260,0.003683
10.6280,-0.020637
10.6300,0.024030
10.6320,0.014151
10.6340,-0.048017
10.6360,-0.019635
10.6380,0.032194
10.6400,-0.003722
10.6420,-0.000612
10.6440,0.001503
10.6460,-0.022995
10.6480,-0.028972
10.6500,0.007402
10.6520,0.009584
10.6540,-0.024646
10.6560,0.031128
10.6580,-0.012092
10.6600,0.027743
10.6620,-0.028184
10.6640,-0.021081
10.6660,0.018602
10.6680,-0.002051
10.6700,-0.015025
10.6720,0.002960
10.6740,-0.006850
10.6760,0.022744
10.6780,0.045753
10.6800,-0.055088
10.6820,-0.019167
10.6840,-0.005817
10.6860,0.004653
10.6880,-0.010003
10.6900,-0.011472
10.6920,-0.017967
10.6940,0.035222
10.6960,0.033925
10.6980,-0.011428
10.7000,-0.002037
10.7020,-0.019097
10.7040,-0.026101
10.7060,0.010328
10.7080,0.012033
10.7100,0.002211
10.7120,0.003397
10.7140,-0.023773
10.7160,0.022351
10.7180,-0.011554
10.7200,0.018761
10.7220,0.014204
10.7240,-0.024746
10.7260,0.001924
10.7280,0.033432
10.7300,-0.000382
10.7320,0.010516
10.7340,0.026373
10.7360,-0.013145
10.7380,-0.003220
10.7400,-0.008558
10.7420,-0.010931
10.7440,0.005992
10.7460,-0.028436
10.7480,0.036273
10.7500,-0.010542
10.7520,-0.011323
10.7540,-0.003717
10.7560,-0.019041
10.7580,-0.014183
10.7600,-0.007921
10.7620,0.034746
10.7640,-0.017868
10.7660,-0.020480
10.7680,0.026331
10.7700,-0.012167
10.7720,-0.045621
10.7740,0.034031
10.7760,-0.010166
10.7780,-0.018895
10.7800,-0.008494
10.7820,-0.020800
10.7840,-0.004915
10.7860,-0.035219
10.7880,-0.019055
10.7900,-0.025600
10.7920,-0.028191
10.7940,0.005826
10.7960,-0.003904
10.7980,-0.027865
10.8000,-0.007356
10.8020,0.009586
10.8040,-0.021672
10.8060,0.007267
10.8080,-0.002257
10.8100,0.036261
10.8120,-0.002743
10.8140,0.019625
10.8160,-0.005675
10.8180,-0.003996
10.8200,-0.004848
10.8220,-0.011696
10.8240,-0.006614
10.8260,0.024628
10.8280,0.008861
10.8300,0.003901
10.8320,-0.029337
10.8340,0.027733
10.8360,0.009604
10.8380,-0.025721
10.8400,0.024099
10.8420,0.016447
10.8440,-0.004992
10.8460,0.021806
10.8480,-0.009552
10.8500,0.022856
10.8520,-0.005882
10.8540,0.005157
10.8560,0.005483
10.8580,0.014884
10.8600,-0.012345
10.8620,-0.006295
10.8640,0.001024
10.8660,0.031205
10.8680,-0.006782
10.8700,0.002596
10.8720,0.017233
10.8740,-0.010125
10.8760,0.003064
10.8780,0.038958
10.8800,-0.015472
10.8820,-0.033871
10.8840,-0.008554
10.8860,0.012226
10.8880,0.030243
10.8900,0.028338
10.8920,0.005103
10.8940,-0.029658
10.8960,-0.009021
10.8980,-0.008077
10.9000,0.019270
10.9020,-0.000482
10.9040,-0.017884
10.9060,-0.025013
10.9080,0.016110
10.9100,0.010331
10.9120,-0.041129
10.9140,0.013504
10.9160,0.013967
10.9180,-0.022441
10.9200,0.007579
10.9220,0.025478
10.9240,0.009983
10.9260,0.034056
10.9280,0.008071
10.9300,0.008843
10.9320,-0.041059
10.9340,0.033126
10.9360,0.018287
10.9380,-0.007795
10.9400,0.024491
10.9420,0.036577
10.9440,0.021877
10.9460,-0.010862
10.9480,-0.005651
10.9500,-0.011135
10.9520,0.012477
10.9540,0.017250
10.9560,0.017573
10.9580,0.017560
10.9600,0.027123
10.9620,0.004572
10.9640,0.082761
10.9660,0.104241
10.9680,0.095878
10.9700,0.078303
10.9720,0.152519
10.9740,0.133757
10.9760,0.168640
10.9780,0.121967
10.9800,0.159217
10.9820,0.143610
10.9840,0.122421
10.9860,0.070462
10.9880,0.102951
10.9900,0.101298
10.9920,0.065750
10.9940,0.061001
10.9960,0.069048
10.9980,-0.022609
11.0000,-0.015612
11.0020,-0.021896
11.0040,-0.018429
11.0060,-0.040713
11.0080,0.006316
11.0100,-0.019842
11.0120,-0.053626
11.0140,-0.154024
11.0160,-0.158014
11.0180,1.191233
11.0200,-0.279703
11.0220,-0.198989
11.0240,-0.064657
11.0260,-0.079524
11.0280,0.003334
11.0300,0.020424
11.0320,0.000778
11.0340,0.029996
11.0360,-0.008219
11.0380,-0.008609
11.0400,-0.025559
11.0420,-0.007599
11.0440,0.027581
11.0460,0.014812
11.0480,0.000237
11.0500,-0.038099
11.0520,-0.022466
11.0540,-0.004733
11.0560,-0.025634
11.0580,0.061877
11.0600,0.074854
11.0620,0.095610
11.0640,0.084925
11.0660,0.074588
11.0680,0.130273
11.0700,0.148553
11.0720,0.212186
11.0740,0.221595
11.0760,0.213737
11.0780,0.246484
11.0800,0.235632
11.0820,0.296990
11.0840,0.298708
11.0860,0.288759
11.0880,0.257396
11.0900,0.274922
11.0920,0.288236
11.0940,0.278217
11.0960,0.256228
11.0980,0.237897
11.1000,0.252991
11.1020,0.209395
11.1040,0.200538
11.1060,0.189389
11.1080,0.146837
11.1100,0.092660
11.1120,0.090587
11.1140,0.070263
11.1160,0.073698
11.1180,-0.025684
11.1200,-0.006876
11.1220,-0.014651
11.1240,0.034017
11.1260,0.009343
11.1280,-0.045051
11.1300,-0.006765
11.1320,0.007770
11.1340,0.005285
11.1360,0.013488
11.1380,-0.028440
11.1400,-0.008686
11.1420,-0.042070
11.1440,-0.027280
11.1460,0.009910
11.1480,-0.011668
11.1500,-0.021967
11.1520,-0.041439
11.1540,-0.014034
11.1560,-0.007313
11.1580,0.013754
11.1600,0.028338
11.1620,-0.010923
11.1640,0.017243
11.1660,0.007625
11.1680,0.013945
11.1700,0.019682
11.1720,-0.011524
11.1740,0.022221
11.1760,-0.010014
11.1780,-0.003740
11.1800,-0.015944
11.1820,-0.008061
11.1840,-0.017844
11.1860,-0.004074
11.1880,0.004753
11.1900,0.014937
11.1920,-0.005381
11.1940,-0.013859
11.1960,0.008695
11.1980,0.026488
11.2000,0.005448
11.2020,0.048898
11.2040,-0.058788
11.2060,0.012048
11.2080,0.021329
11.2100,-0.013204
11.2120,-0.003131
11.2140,0.015811
11.2160,-0.000063
11.2180,-0.001333
11.2200,-0.011404
11.2220,0.006249
11.2240,-0.019611
11.2260,0.023797
11.2280,-0.019043
11.2300,0.002340
11.2320,-0.008964
11.2340,0.006042
11.2360,-0.003521
11.2380,-0.007355
11.2400,-0.029494
11.2420,0.010196
11.2440,0.010957
11.2460,0.009650
11.2480,-0.010728
11.2500,0.013430
11.2520,0.029594
11.2540,-0.013174
11.2560,0.006331
11.2580,-0.008003
11.2600,0.040198
11.2620,0.003644
11.2640,0.004159
11.2660,0.019055
11.2680,0.002534
11.2700,-0.004110
11.2720,0.008532
11.2740,0.016935
11.2760,-0.015271
11.2780,-0.021715
11.2800,0.009871
11.2820,-0.044340
11.2840,-0.024396
11.2860,-0.015494
11.2880,-0.016619
11.2900,-0.009898
11.2920,0.000730
11.2940,-0.013747
11.2960,0.002083
11.2980,0.011616
11.3000,-0.021754
11.3020,0.008149
11.3040,0.012815
11.3060,-0.017348
11.3080,0.004635
11.3100,0.008693
11.3120,0.035133
11.3140,0.029028
11.3160,0.019759
11.3180,-0.020623
11.3200,-0.056553
11.3220,0.017430
11.3240,-0.007108
11.3260,0.011354
11.3280,0.050221
11.3300,0.005327
11.3320,0.000066
11.3340,0.023109
11.3360,-0.001127
11.3380,-0.000134
11.3400,0.017212
11.3420,0.026661
11.3440,-0.012395
11.3460,-0.019586
11.3480,-0.037064
11.3500,-0.011675
11.3520,0.020238
11.3540,-0.019202
11.3560,0.035382
11.3580,-0.011250
11.3600,-0.018671
11.3620,-0.021110
11.3640,-0.016636
11.3660,0.021769
11.3680,-0.006897
11.3700,-0.004006
11.3720,0.013244
11.3740,0.002791
11.3760,-0.001320
11.3780,0.020718
11.3800,-0.010896
11.3820,0.015965
11.3840,-0.016317
11.3860,0.016996
11.3880,0.038370
11.3900,0.004620
11.3920,0.009103
11.3940,0.011352
11.3960,0.014387
11.3980,0.000564
11.4000,-0.034975
11.4020,-0.007073
11.4040,0.002439
11.4060,0.028137
11.4080,-0.003516
11.4100,0.004735
11.4120,0.003183
11.4140,0.008338
11.4160,0.017458
11.4180,-0.004929
11.4200,-0.002949
11.4220,0.003478
11.4240,0.011216
11.4260,-0.019002
11.4280,0.027399
11.4300,0.024644
11.4320,0.029901
11.4340,0.007267
11.4360,0.013523
11.4380,0.019510
11.4400,-0.016088
11.4420,0.088390
11.4440,0.011477
11.4460,0.035143
11.4480,0.016398
11.4500,0.030311
11.4520,-0.002715
11.4540,-0.016112
11.4560,0.022590
11.4580,-0.063994
11.4600,0.011581
11.4620,-0.013979
11.4640,0.007221
11.4660,0.004441
11.4680,-0.015077
11.4700,0.014788
11.4720,0.008206
11.4740,0.000981
11.4760,-0.034713
11.4780,-0.000617
11.4800,-0.010591
11.4820,-0.016815
11.4840,0.037630
11.4860,0.014972
11.4880,0.050443
11.4900,0.000053
11.4920,0.012717
11.4940,0.025896
11.4960,0.000225
11.4980,-0.020102
11.5000,0.010545
11.5020,-0.011479
11.5040,0.034689
11.5060,0.000040
11.5080,0.008047
11.5100,-0.012689
11.5120,-0.000070
11.5140,-0.017279
11.5160,0.012328
11.5180,-0.008760
11.5200,0.008754
11.5220,0.014572
11.5240,-0.007397
11.5260,0.002375
11.5280,-0.003894
11.5300,0.015936
11.5320,-0.005916
11.5340,0.023493
11.5360,-0.000646
11.5380,0.003864
11.5400,-0.028324
11.5420,-0.016526
11.5440,-0.005473
11.5460,-0.004674
11.5480,0.009628
11.5500,0.029569
11.5520,0.015204
11.5540,-0.013528
11.5560,0.007366
11.5580,-0.006604
11.5600,0.006472
11.5620,-0.017639
11.5640,-0.018264
11.5660,0.027256
11.5680,0.011337
11.5700,0.010248
11.5720,0.024155
11.5740,0.041220
11.5760,0.032897
11.5780,0.050314
11.5800,0.095049
11.5820,0.089980
11.5840,0.102444
11.5860,0.134551
11.5880,0.146960
11.5900,0.099722
11.5920,0.131225
11.5940,0.160257
11.5960,0.129958
11.5980,0.114363
11.6000,0.132531
11.6020,0.083846
11.6040,0.095839
11.6060,0.054532
11.6080,0.004774
11.6100,0.040748
11.6120,0.017757
11.6140,0.011272
11.6160,-0.031743
11.6180,-0.026034
11.6200,-0.016288
11.6220,-0.007793
11.6240,-0.037075
11.6260,-0.075700
11.6280,-0.118282
11.6300,-0.165258
11.6320,1.236253
11.6340,-0.271339
11.6360,-0.192569
11.6380,-0.102009
11.6400,-0.033305
11.6420,-0.010050
11.6440,0.016010
11.6460,0.019872
11.6480,-0.010170
11.6500,-0.026797
11.6520,0.020845
11.6540,0.013870
11.6560,0.034045
11.6580,-0.008067
11.6600,0.013972
11.6620,-0.027934
11.6640,-0.004296
11.6660,-0.002590
11.6680,-0.001084
11.6700,-0.012200
11.6720,0.033437
11.6740,0.084767
11.6760,0.049632
11.6780,0.113109
11.6800,0.090750
11.6820,0.143168
11.6840,0.145606
11.6860,0.177575
11.6880,0.184668
11.6900,0.203475
11.6920,0.263564
11.6940,0.265270
11.6960,0.286503
11.6980,0.267367
11.7000,0.318693
11.7020,0.294243
11.7040,0.322488
11.7060,0.280771
11.7080,0.250888
11.7100,0.301333
11.7120,0.259574
11.7140,0.231280
11.7160,0.174092
11.7180,0.208791
11.7200,0.184813
11.7220,0.142119
11.7240,0.142187
11.7260,0.082908
11.7280,0.064813
11.7300,0.016866
11.7320,-0.004626
11.7340,0.002046
11.7360,-0.001239
11.7380,0.008073
11.7400,-0.000702
11.7420,-0.019567
11.7440,-0.007626
11.7460,0.006969
11.7480,0.000729
11.7500,0.004635
11.7520,0.027937
11.7540,-0.018078
11.7560,0.004715
11.7580,-0.017791
11.7600,-0.027244
11.7620,-0.019734
11.7640,-0.000379
11.7660,0.004067
11.7680,-0.034260
11.7700,-0.008844
11.7720,0.019035
11.7740,-0.007906
11.7760,0.002252
11.7780,-0.049522
11.7800,0.005308
11.7820,-0.040887
11.7840,-0.034040
11.7860,-0.001923
11.7880,0.008778
11.7900,0.002810
11.7920,-0.008307
11.7940,-0.010696
11.7960,0.003516
11.7980,0.018413
11.8000,-0.017356
11.8020,-0.022263
11.8040,0.001989
11.8060,0.025603
11.8080,-0.023195
11.8100,0.040046
11.8120,0.003338
11.8140,-0.026436
11.8160,0.001736
11.8180,0.021172
11.8200,-0.007108
11.8220,-0.028796
11.8240,0.000516
11.8260,0.007206
11.8280,-0.000504
11.8300,0.001267
11.8320,0.006632
11.8340,0.008423
11.8360,-0.009351
11.8380,-0.030412
11.8400,0.021022
11.8420,0.012422
11.8440,-0.007791
11.8460,0.002976
11.8480,0.004533
11.8500,0.000817
11.8520,-0.007984
11.8540,0.007764
11.8560,-0.023203
11.8580,0.001710
11.8600,0.027995
11.8620,0.009246
11.8640,0.028459
11.8660,-0.004135
11.8680,0.026245
11.8700,0.010601
11.8720,-0.024633
11.8740,0.008162
11.8760,-0.006225
11.8780,0.011918
11.8800,0.004036
11.8820,0.002368
11.8840,0.022107
11.8860,-0.007072
11.8880,-0.017237
11.8900,-0.023666
11.8920,-0.021018
11.8940,0.029136
11.8960,-0.016290
11.8980,0.018471
11.9000,0.010429
11.9020,0.015244
11.9040,-0.003079
11.9060,0.008540
11.9080,0.021778
11.9100,0.010105
11.9120,0.032146
11.9140,0.004064
11.9160,0.011825
11.9180,0.046321
11.9200,0.005063
11.9220,-0.035232
11.9240,-0.010492
11.9260,0.018896
11.9280,-0.018563
11.9300,-0.016157
11.9320,0.020170
11.9340,0.000620
11.9360,-0.006483
11.9380,0.017902
11.9400,0.002800
11.9420,-0.019652
11.9440,0.000531
11.9460,-0.033251
11.9480,-0.009343
11.9500,-0.020873
11.9520,-0.004633
11.9540,0.029096
11.9560,-0.023267
11.9580,0.009395
11.9600,-0.021790
11.9620,0.019219
11.9640,-0.034204
11.9660,-0.012260
11.9680,0.028510
11.9700,0.038803
11.9720,0.000950
11.9740,0.007366
11.9760,-0.000092
11.9780,-0.022300
11.9800,-0.000473
11.9820,-0.008599
11.9840,0.017209
11.9860,-0.009024
11.9880,0.001573
11.9900,0.008997
11.9920,0.045733
11.9940,0.018466
11.9960,-0.026054
11.9980,0.002700
12.0000,-0.010565
12.0020,0.015986
12.0040,-0.001673
12.0060,0.023739
12.0080,-0.010262
12.0100,-0.013287
12.0120,-0.009171
12.0140,-0.016206
12.0160,-0.036118
12.0180,0.000195
12.0200,0.008905
12.0220,-0.021777
12.0240,0.002937
12.0260,-0.015494
12.0280,-0.009507
12.0300,0.026059
12.0320,-0.005612
12.0340,-0.011678
12.0360,0.019217
12.0380,0.020478
12.0400,0.035521
12.0420,0.002936
12.0440,0.032995
12.0460,-0.023752
12.0480,0.008703
12.0500,-0.005398
12.0520,-0.019449
12.0540,-0.029202
12.0560,0.004500
12.0580,-0.023809
12.0600,0.017003
12.0620,-0.002860
12.0640,-0.010219
12.0660,-0.050592
12.0680,0.007470
12.0700,0.020509
12.0720,0.000526
12.0740,0.018870
12.0760,-0.010069
12.0780,-0.002014
12.0800,-0.038723
12.0820,0.021737
12.0840,0.020583
12.0860,0.028949
12.0880,0.012506
12.0900,-0.018501
12.0920,-0.015354
12.0940,-0.008996
12.0960,0.015268
12.0980,0.030984
12.1000,-0.013607
12.1020,0.019916
12.1040,-0.014244
12.1060,-0.019691
12.1080,-0.005526
12.1100,0.008616
12.1120,-0.024864
12.1140,0.041493
12.1160,-0.017622
12.1180,0.001000
12.1200,0.013659
12.1220,0.002971
12.1240,-0.008448
12.1260,-0.044825
12.1280,-0.007882
12.1300,-0.015298
12.1320,-0.023196
12.1340,0.022296
12.1360,-0.001750
12.1380,-0.008737
12.1400,0.009732
12.1420,0.008052
12.1440,-0.015507
12.1460,0.015355
12.1480,-0.002716
12.1500,0.032341
12.1520,0.007548
12.1540,0.011845
12.1560,0.007050
12.1580,0.037589
12.1600,0.018791
12.1620,-0.001587
12.1640,0.007536
12.1660,-0.014721
12.1680,0.003801
12.1700,0.012309
12.1720,-0.000628
12.1740,0.010645
12.1760,0.004096
12.1780,0.003353
12.1800,-0.007196
12.1820,-0.007125
12.1840,-0.022260
12.1860,-0.006926
12.1880,-0.005502
12.1900,0.002958
12.1920,-0.001308
12.1940,-0.014673
12.1960,-0.030679
12.1980,-0.028147
12.2000,0.017833
12.2020,0.012528
12.2040,-0.000792
12.2060,0.022992
12.2080,-0.004118
12.2100,-0.005756
12.2120,0.008118
12.2140,0.063759
12.2160,0.057413
12.2180,0.081958
12.2200,0.131149
12.2220,0.104136
12.2240,0.091941
12.2260,0.169683
12.2280,0.129192
12.2300,0.142010
12.2320,0.153501
12.2340,0.102219
12.2360,0.156709
12.2380,0.131665
12.2400,0.081401
12.2420,0.118552
12.2440,0.039528
12.2460,0.041176
12.2480,0.028856
12.2500,-0.001456
12.2520,0.009744
12.2540,-0.005633
12.2560,-0.009587
12.2580,0.013881
12.2600,0.010473
12.2620,-0.021863
12.2640,-0.061660
12.2660,-0.121372
12.2680,-0.192272
12.2700,1.201783
12.2720,-0.300882
12.2740,-0.165355
12.2760,-0.102796
12.2780,-0.025931
12.2800,-0.022988
12.2820,-0.004416
12.2840,0.005535
12.2860,-0.037679
12.2880,-0.032377
12.2900,0.052963
12.2920,-0.007035
12.2940,-0.024033
12.2960,-0.024744
12.2980,-0.006263
12.3000,-0.014578
12.3020,0.026117
12.3040,-0.000047
12.3060,-0.011868
12.3080,0.000714
12.3100,0.048286
12.3120,0.060612
12.3140,0.095012
12.3160,0.091136
12.3180,0.092192
12.3200,0.142723
12.3220,0.197658
12.3240,0.216077
12.3260,0.143687
12.3280,0.211558
12.3300,0.262919
12.3320,0.300387
12.3340,0.286065
12.3360,0.245546
12.3380,0.264384
12.3400,0.285869
12.3420,0.281840
12.3440,0.266304
12.3460,0.259784
12.3480,0.271109
12.3500,0.239487
12.3520,0.202018
12.3540,0.209988
12.3560,0.146470
12.3580,0.173370
12.3600,0.150456
12.3620,0.112957
12.3640,0.046961
12.3660,0.084928
12.3680,0.080464
12.3700,0.019896
12.3720,0.023253
12.3740,0.030142
12.3760,-0.026804
12.3780,0.004925
12.3800,-0.040864
12.3820,0.017386
12.3840,0.008307
12.3860,0.020375
12.3880,-0.002564
12.3900,-0.010311
12.3920,-0.002456
12.3940,-0.037813
12.3960,-0.008151
12.3980,0.036215
12.4000,0.003464
12.4020,0.004833
12.4040,-0.026651
12.4060,-0.009475
12.4080,-0.014263
12.4100,-0.007709
12.4120,0.017039
12.4140,-0.044261
12.4160,-0.029993
12.4180,-0.002506
12.4200,0.018104
12.4220,-0.004600
12.4240,0.023023
12.4260,-0.014169
12.4280,0.009840
12.4300,0.028646
12.4320,-0.027835
12.4340,0.004471
12.4360,0.030106
12.4380,-0.019246
12.4400,0.007791
12.4420,0.015340
12.4440,-0.034157
12.4460,0.005790
12.4480,0.044349
12.4500,-0.012613
12.4520,0.017249
12.4540,0.021201
12.4560,-0.005617
12.4580,-0.001045
12.4600,0.000731
12.4620,-0.002097
12.4640,0.002726
12.4660,-0.016699
12.4680,0.007757
12.4700,0.015668
12.4720,-0.004809
12.4740,-0.003648
12.4760,-0.016135
12.4780,0.014242
12.4800,-0.022605
12.4820,-0.008414
12.4840,0.006279
12.4860,0.008908
12.4880,-0.026616
12.4900,0.025727
12.4920,-0.012473
12.4940,-0.012773
12.4960,0.021383
12.4980,0.014297
12.5000,0.016029
12.5020,0.006743
12.5040,-0.013620
12.5060,0.024668
12.5080,-0.009334
12.5100,-0.019731
12.5120,0.010890
12.5140,-0.006005
12.5160,0.038454
12.5180,0.037385
12.5200,-0.003213
12.5220,-0.000634
12.5240,-0.035701
12.5260,-0.040148
12.5280,0.006850
12.5300,0.009300
12.5320,-0.012428
12.5340,0.021783
12.5360,-0.048056
12.5380,0.012935
12.5400,-0.036843
12.5420,0.001426
12.5440,0.016674
12.5460,-0.008251
12.5480,0.011289
12.5500,0.002959
12.5520,0.011924
12.5540,-0.009457
12.5560,-0.008642
12.5580,-0.014176
12.5600,0.048077
12.5620,-0.028572
12.5640,0.007897
12.5660,0.010602
12.5680,0.024550
12.5700,0.001561
12.5720,0.026146
12.5740,0.004978
12.5760,-0.062185
12.5780,0.014091
12.5800,0.004451
12.5820,0.006723
12.5840,0.013172
12.5860,0.052860
12.5880,-0.066161
12.5900,-0.020331
12.5920,-0.016668
12.5940,-0.003318
12.5960,0.035442
12.5980,0.047903
12.6000,-0.027140
12.6020,0.015036
12.6040,-0.009780
12.6060,0.023562
12.6080,0.010095
12.6100,0.038299
12.6120,-0.024397
12.6140,0.025361
12.6160,0.000393
12.6180,-0.014253
12.6200,0.023389
12.6220,0.008735
12.6240,0.020054
12.6260,0.017839
12.6280,0.031477
12.6300,0.039097
12.6320,0.007642
12.6340,0.022915
12.6360,-0.004825
12.6380,-0.030308
12.6400,0.000984
12.6420,0.039366
12.6440,0.010345
12.6460,-0.021987
12.6480,0.008174
12.6500,-0.031264
12.6520,0.027782
12.6540,-0.011189
12.6560,-0.009744
12.6580,-0.040433
12.6600,-0.018346
12.6620,0.034885
12.6640,-0.014089
12.6660,-0.004179
12.6680,-0.025073
12.6700,0.026834
12.6720,-0.017387
12.6740,-0.018592
12.6760,0.012513
12.6780,0.007141
12.6800,-0.004766
12.6820,0.010506
12.6840,0.029724
12.6860,-0.020092
12.6880,0.034489
12.6900,-0.018637
12.6920,0.021552
12.6940,0.039801
12.6960,0.010088
12.6980,-0.018627
12.7000,-0.006769
12.7020,-0.008827
12.7040,0.020774
12.7060,-0.000888
12.7080,-0.005478
12.7100,-0.010565
12.7120,0.015305
12.7140,-0.002826
12.7160,0.023642
12.7180,0.019985
12.7200,-0.043601
12.7220,0.007622
12.7240,0.003406
12.7260,-0.001541
12.7280,0.009640
12.7300,0.002538
12.7320,-0.016940
12.7340,0.003654
12.7360,0.005285
12.7380,0.005808
12.7400,0.006727
12.7420,-0.016511
12.7440,0.013198
12.7460,-0.005114
12.7480,0.029630
12.7500,0.016482
12.7520,0.018533
12.7540,0.001670
12.7560,-0.004605
12.7580,-0.002634
12.7600,-0.029493
12.7620,0.007823
12.7640,-0.048289
12.7660,-0.008167
12.7680,-0.002460
12.7700,-0.037569
12.7720,-0.018168
12.7740,0.008023
12.7760,0.003476
12.7780,0.037580
12.7800,-0.002432
12.7820,0.016722
12.7840,0.004525
12.7860,-0.004770
12.7880,0.028604
12.7900,0.029405
12.7920,0.026030
12.7940,0.012774
12.7960,0.001651
12.7980,-0.008192
12.8000,-0.040328
12.8020,-0.016475
12.8040,0.010576
12.8060,-0.013663
12.8080,-0.001797
12.8100,0.002883
12.8120,-0.013827
12.8140,0.017227
12.8160,0.061752
12.8180,0.004682
12.8200,0.017678
12.8220,-0.017871
12.8240,0.003368
12.8260,-0.029611
12.8280,0.009281
12.8300,0.001948
12.8320,0.008982
12.8340,-0.017776
12.8360,-0.008673
12.8380,0.009093
12.8400,-0.031139
12.8420,0.022692
12.8440,-0.008698
12.8460,0.021909
12.8480,-0.029578
12.8500,-0.001892
12.8520,0.007221
12.8540,-0.001880
12.8560,0.015478
12.8580,-0.000083
12.8600,-0.000819
12.8620,-0.008579
12.8640,-0.021145
12.8660,0.005145
12.8680,-0.015101
12.8700,0.032722
12.8720,-0.014226
12.8740,-0.003957
12.8760,0.018025
12.8780,0.014517
12.8800,0.000093
12.8820,-0.013868
12.8840,0.009137
12.8860,0.026898
12.8880,-0.042881
12.8900,-0.006133
12.8920,0.014086
12.8940,0.003633
12.8960,0.035734
12.8980,-0.007329
12.9000,0.030438
12.9020,0.003413
12.9040,0.072019
12.9060,0.086969
12.9080,0.067886
12.9100,0.126697
12.9120,0.125729
12.9140,0.159622
12.9160,0.144938
12.9180,0.153219
12.9200,0.147242
12.9220,0.129653
12.9240,0.121210
12.9260,0.086754
12.9280,0.095611
12.9300,0.068832
12.9320,0.050995
12.9340,0.082373
12.9360,0.023062
12.9380,0.012321
12.9400,0.033653
12.9420,0.020334
12.9440,-0.012459
12.9460,-0.010336
12.9480,-0.005396
12.9500,-0.021537
12.9520,-0.014976
12.9540,-0.129262
12.9560,-0.195241
12.9580,1.201872
12.9600,-0.258234
12.9620,-0.149744
12.9640,-0.073862
12.9660,-0.017237
12.9680,-0.004081
12.9700,0.000437
12.9720,-0.029022
12.9740,-0.007978
12.9760,-0.025118
12.9780,-0.023528
12.9800,0.007822
12.9820,-0.016461
12.9840,0.004663
12.9860,-0.025380
12.9880,-0.004492
12.9900,0.029715
12.9920,0.023289
12.9940,-0.002713
12.9960,-0.001322
12.9980,0.041049
13.0000,0.051194
13.0020,0.049164
13.0040,0.085552
13.0060,0.114925
13.0080,0.132399
13.0100,0.196689
13.0120,0.183805
13.0140,0.166657
13.0160,0.213490
13.0180,0.260850
13.0200,0.290912
13.0220,0.303552
13.0240,0.277935
13.0260,0.341693
13.0280,0.275190
13.0300,0.281843
13.0320,0.295249
13.0340,0.253266
13.0360,0.296153
13.0380,0.255425
13.0400,0.239583
13.0420,0.203638
13.0440,0.207880
13.0460,0.162294
13.0480,0.125553
13.0500,0.123522
13.0520,0.075228
13.0540,0.033581
13.0560,0.066813
13.0580,-0.020005
13.0600,0.009205
13.0620,0.000996
13.0640,0.002971
13.0660,0.000495
13.0680,-0.030077
13.0700,-0.020247
13.0720,-0.008935
13.0740,0.018175
13.0760,-0.029836
13.0780,-0.000011
13.0800,-0.005775
13.0820,-0.001127
13.0840,-0.013420
13.0860,-0.019975
13.0880,-0.008237
13.0900,-0.023526
13.0920,-0.002362
13.0940,-0.001384
13.0960,-0.015877
13.0980,-0.010000
13.1000,-0.013505
13.1020,0.024073
13.1040,-0.003153
13.1060,-0.018666
13.1080,0.002266
13.1100,-0.000460
13.1120,0.027781
13.1140,0.022101
13.1160,-0.005239
13.1180,0.035996
13.1200,0.021767
13.1220,-0.011110
13.1240,0.006549
13.1260,-0.016326
13.1280,-0.019783
13.1300,0.009907
13.1320,-0.011081
13.1340,0.040660
13.1360,0.009314
13.1380,-0.022629
13.1400,0.026353
13.1420,-0.006609
13.1440,0.005925
13.1460,-0.010263
13.1480,-0.015792
13.1500,-0.005468
13.1520,-0.008194
13.1540,0.002835
13.1560,0.038631
13.1580,-0.041179
13.1600,-0.021034
13.1620,0.009499
13.1640,-0.008248
13.1660,-0.019608
13.1680,0.024344
13.1700,0.002670
13.1720,0.010018
13.1740,0.028914
13.1760,-0.020643
13.1780,-0.010390
13.1800,-0.003181
13.1820,-0.006787
13.1840,0.000293
13.1860,0.032041
13.1880,-0.011569
13.1900,-0.006103
13.1920,0.017169
13.1940,0.011426
13.1960,0.008052
13.1980,0.009135
13.2000,-0.047457
13.2020,0.009726
13.2040,0.028158
13.2060,0.003110
13.2080,0.002248
13.2100,0.013236
13.2120,0.009842
13.2140,-0.023048
13.2160,-0.021779
13.2180,-0.006872
13.2200,0.014676
13.2220,-0.031436
13.2240,-0.016963
13.2260,-0.041673
13.2280,-0.006912
13.2300,0.034107
13.2320,-0.039033
13.2340,-0.017593
13.2360,-0.006836
13.2380,0.019703
13.2400,0.027930
13.2420,-0.009507
13.2440,0.010638
13.2460,-0.008930
13.2480,0.008046
13.2500,0.016351
13.2520,0.042558
13.2540,0.028543
13.2560,-0.014718
13.2580,-0.007702
13.2600,-0.008405
13.2620,0.019007
13.2640,-0.007983
13.2660,0.008415
13.2680,-0.041550
13.2700,-0.015643
13.2720,-0.004996
13.2740,0.017863
13.2760,-0.016578
13.2780,-0.018334
13.2800,-0.037911
13.2820,0.034470
13.2840,-0.020919
13.2860,-0.014457
13.2880,-0.019821
13.2900,-0.021106
13.2920,-0.017352
13.2940,0.001007
13.2960,0.019828
13.2980,0.015777
13.3000,0.017055
13.3020,0.022943
13.3040,0.004743
13.3060,-0.004366
13.3080,-0.022089
13.3100,-0.000935
13.3120,0.017827
13.3140,0.039591
13.3160,-0.007489
13.3180,0.035732
13.3200,0.001934
13.3220,-0.010389
13.3240,0.008444
13.3260,0.010018
13.3280,0.020309
13.3300,0.017417
13.3320,0.001498
13.3340,-0.006409
13.3360,-0.040087
13.3380,0.012883
13.3400,-0.002811
13.3420,0.030697
13.3440,0.010060
13.3460,0.030218
13.3480,0.005605
13.3500,0.021438
13.3520,0.000195
13.3540,-0.035488
13.3560,0.001249
13.3580,-0.016274
13.3600,0.018052
13.3620,0.000081
13.3640,0.011222
13.3660,0.006108
13.3680,-0.043858
13.3700,-0.005609
13.3720,-0.051243
13.3740,-0.040453
13.3760,0.037571
13.3780,-0.023225
13.3800,-0.009707
13.3820,-0.012709
13.3840,0.016442
13.3860,-0.002559
13.3880,-0.019297
13.3900,-0.012522
13.3920,0.003193
13.3940,0.028210
13.3960,0.015713
13.3980,-0.014136
13.4000,0.000169
13.4020,-0.021804
13.4040,0.043746
13.4060,0.015598
13.4080,-0.025597
13.4100,-0.015078
13.4120,0.003076
13.4140,-0.015705
13.4160,0.008047
13.4180,-0.002846
13.4200,0.036595
13.4220,0.000599
13.4240,-0.005947
13.4260,-0.019003
13.4280,-0.007802
13.4300,-0.014209
13.4320,0.013586
13.4340,0.023342
13.4360,-0.016262
13.4380,0.009819
13.4400,-0.019123
13.4420,0.005617
13.4440,0.016604
13.4460,0.014179
13.4480,-0.004130
13.4500,0.009615
13.4520,0.005521
13.4540,-0.013589
13.4560,-0.005649
13.4580,0.005940
13.4600,0.000796
13.4620,0.029548
13.4640,0.009175
13.4660,-0.009142
13.4680,0.033736
13.4700,0.043623
13.4720,0.014844
13.4740,-0.023419
13.4760,0.024450
13.4780,0.022719
13.4800,0.003337
13.4820,0.006104
13.4840,0.035913
13.4860,-0.015561
13.4880,0.013890
13.4900,0.010532
13.4920,0.014088
13.4940,-0.016203
13.4960,-0.000054
13.4980,-0.001073
13.5000,0.004812
13.5020,0.001561
13.5040,-0.030037
13.5060,-0.012021
13.5080,0.078432
13.5100,0.021563
13.5120,-0.003939
13.5140,0.006437
13.5160,0.012931
13.5180,-0.044576
13.5200,-0.010739
13.5220,-0.044709
13.5240,0.024574
13.5260,-0.007989
13.5280,0.022118
13.5300,0.006448
13.5320,-0.012769
13.5340,0.003138
13.5360,-0.038818
13.5380,-0.010508
13.5400,-0.021051
13.5420,-0.023517
13.5440,0.034347
13.5460,-0.017140
13.5480,-0.012419
13.5500,0.007388
13.5520,-0.030529
13.5540,0.062439
